### BF-HK 1450-2500nm 1.5inch
### Cut-on: 1450nm Â± 2% 
### Out of Band Blocking: OD4 from 300-1250nm 
### > 85% avg over the central 90% of the 80% BW
## Wavelength[micron] Transmission[%]
2.5000 95.04736 
2.4990 95.03754 
2.4980 95.07913 
2.4970 95.10123 
2.4960 95.04681 
2.4950 95.05837 
2.4940 94.99776 
2.4930 95.03415 
2.4920 95.08189 
2.4910 95.11005 
2.4900 95.10763 
2.4890 95.11826 
2.4880 95.07561 
2.4870 95.13409 
2.4860 95.03532 
2.4850 95.06430 
2.4840 95.16991 
2.4830 95.14402 
2.4820 95.10956 
2.4810 95.13749 
2.4800 95.27523 
2.4790 95.18890 
2.4780 95.21783 
2.4770 95.21931 
2.4760 95.28770 
2.4750 95.22606 
2.4740 95.28585 
2.4730 95.32202 
2.4720 95.34010 
2.4710 95.30878 
2.4700 95.32187 
2.4690 95.44069 
2.4680 95.43232 
2.4670 95.46436 
2.4660 95.55262 
2.4650 95.51764 
2.4640 95.50644 
2.4630 95.59505 
2.4620 95.61263 
2.4610 95.51528 
2.4600 95.66401 
2.4590 95.68246 
2.4580 95.66666 
2.4570 95.68946 
2.4560 95.74427 
2.4550 95.75931 
2.4540 95.78252 
2.4530 95.84240 
2.4520 95.82022 
2.4510 95.88333 
2.4500 95.88588 
2.4490 95.87298 
2.4480 95.86590 
2.4470 95.96027 
2.4460 95.97824 
2.4450 96.00952 
2.4440 95.95946 
2.4430 95.96596 
2.4420 96.04801 
2.4410 96.05247 
2.4400 96.07417 
2.4390 96.09955 
2.4380 96.10328 
2.4370 96.15871 
2.4360 96.18636 
2.4350 96.24793 
2.4340 96.17487 
2.4330 96.11896 
2.4320 96.14079 
2.4310 96.13868 
2.4300 96.18645 
2.4290 96.17842 
2.4280 96.23016 
2.4270 96.24883 
2.4260 96.25801 
2.4250 96.27470 
2.4240 96.30695 
2.4230 96.27154 
2.4220 96.29470 
2.4210 96.33665 
2.4200 96.38088 
2.4190 96.37944 
2.4180 96.35184 
2.4170 96.37744 
2.4160 96.38480 
2.4150 96.37148 
2.4140 96.42183 
2.4130 96.46304 
2.4120 96.40837 
2.4110 96.36546 
2.4100 96.47572 
2.4090 96.49473 
2.4080 96.44272 
2.4070 96.50475 
2.4060 96.52684 
2.4050 96.46279 
2.4040 96.48281 
2.4030 96.59463 
2.4020 96.56030 
2.4010 96.44145 
2.4000 96.59532 
2.3990 96.66508 
2.3980 96.50889 
2.3970 96.58492 
2.3960 96.71387 
2.3950 96.51675 
2.3940 96.55695 
2.3930 96.73497 
2.3920 96.58814 
2.3910 96.56571 
2.3900 96.81062 
2.3890 96.69968 
2.3880 96.66071 
2.3870 96.76711 
2.3860 96.75468 
2.3850 96.66924 
2.3840 96.75259 
2.3830 96.80431 
2.3820 96.70706 
2.3810 96.86825 
2.3800 96.76838 
2.3790 96.75546 
2.3780 96.72549 
2.3770 96.81278 
2.3760 96.83265 
2.3750 96.83555 
2.3740 96.79845 
2.3730 96.79446 
2.3720 96.83855 
2.3710 96.74496 
2.3700 96.78343 
2.3690 96.83543 
2.3680 96.82577 
2.3670 96.81183 
2.3660 96.84235 
2.3650 96.96941 
2.3640 96.78130 
2.3630 96.77135 
2.3620 96.93797 
2.3610 96.78823 
2.3600 96.77612 
2.3590 96.95650 
2.3580 96.81660 
2.3570 96.73922 
2.3560 96.90451 
2.3550 96.86411 
2.3540 96.70431 
2.3530 96.79594 
2.3520 96.87353 
2.3510 96.68868 
2.3500 96.72048 
2.3490 96.85736 
2.3480 96.69180 
2.3470 96.69420 
2.3460 96.88951 
2.3450 96.68321 
2.3440 96.64552 
2.3430 96.77776 
2.3420 96.70112 
2.3410 96.60272 
2.3400 96.75391 
2.3390 96.83495 
2.3380 96.58165 
2.3370 96.66286 
2.3360 96.72169 
2.3350 96.54449 
2.3340 96.62231 
2.3330 96.71542 
2.3320 96.63248 
2.3310 96.56284 
2.3300 96.64858 
2.3290 96.64777 
2.3280 96.53891 
2.3270 96.59774 
2.3260 96.61945 
2.3250 96.59805 
2.3240 96.52946 
2.3230 96.72867 
2.3220 96.58253 
2.3210 96.54398 
2.3200 96.73970 
2.3190 96.60814 
2.3180 96.58601 
2.3170 96.69928 
2.3160 96.61740 
2.3150 96.57786 
2.3140 96.64993 
2.3130 96.72278 
2.3120 96.66323 
2.3110 96.63236 
2.3100 96.67408 
2.3090 96.63982 
2.3080 96.62174 
2.3070 96.75437 
2.3060 96.68882 
2.3050 96.62948 
2.3040 96.76050 
2.3030 96.65758 
2.3020 96.62737 
2.3010 96.74223 
2.3000 96.73136 
2.2990 96.63180 
2.2980 96.70451 
2.2970 96.71634 
2.2960 96.67210 
2.2950 96.77702 
2.2940 96.76460 
2.2930 96.64948 
2.2920 96.79838 
2.2910 96.81249 
2.2900 96.72321 
2.2890 96.77997 
2.2880 96.74061 
2.2870 96.73965 
2.2860 96.77528 
2.2850 96.82110 
2.2840 96.78770 
2.2830 96.84856 
2.2820 96.75721 
2.2810 96.81422 
2.2800 96.85686 
2.2790 96.78915 
2.2780 96.80154 
2.2770 96.81592 
2.2760 96.79744 
2.2750 96.82061 
2.2740 96.77624 
2.2730 96.75442 
2.2720 96.87437 
2.2710 96.81166 
2.2700 96.80515 
2.2690 96.82668 
2.2680 96.75843 
2.2670 96.78251 
2.2660 96.79624 
2.2650 96.75916 
2.2640 96.71311 
2.2630 96.72147 
2.2620 96.73655 
2.2610 96.69523 
2.2600 96.71935 
2.2590 96.68542 
2.2580 96.62868 
2.2570 96.72469 
2.2560 96.58937 
2.2550 96.59988 
2.2540 96.68068 
2.2530 96.53932 
2.2520 96.57733 
2.2510 96.59438 
2.2500 96.51316 
2.2490 96.49850 
2.2480 96.56245 
2.2470 96.49013 
2.2460 96.45797 
2.2450 96.46217 
2.2440 96.43074 
2.2430 96.39550 
2.2420 96.40707 
2.2410 96.33869 
2.2400 96.30606 
2.2390 96.37238 
2.2380 96.28181 
2.2370 96.32918 
2.2360 96.32008 
2.2350 96.22914 
2.2340 96.25214 
2.2330 96.20464 
2.2320 96.17164 
2.2310 96.16499 
2.2300 96.11421 
2.2290 96.07962 
2.2280 96.09388 
2.2270 96.04768 
2.2260 95.95900 
2.2250 96.02662 
2.2240 95.99880 
2.2230 95.99413 
2.2220 95.93895 
2.2210 95.94280 
2.2200 95.96842 
2.2190 95.84805 
2.2180 95.98611 
2.2170 95.87542 
2.2160 95.85349 
2.2150 95.96679 
2.2140 95.75897 
2.2130 95.88094 
2.2120 95.95736 
2.2110 95.75109 
2.2100 95.90108 
2.2090 95.96544 
2.2080 95.78522 
2.2070 95.90730 
2.2060 95.99444 
2.2050 95.83096 
2.2040 96.02477 
2.2030 95.99494 
2.2020 96.00016 
2.2010 96.18356 
2.2000 96.05675 
2.1990 96.12128 
2.1980 96.24815 
2.1970 96.15017 
2.1960 96.28136 
2.1950 96.40893 
2.1940 96.30391 
2.1930 96.41003 
2.1920 96.46017 
2.1910 96.37989 
2.1900 96.48732 
2.1890 96.50662 
2.1880 96.56383 
2.1870 96.58997 
2.1860 96.66124 
2.1850 96.58125 
2.1840 96.69698 
2.1830 96.68800 
2.1820 96.70645 
2.1810 96.75488 
2.1800 96.75806 
2.1790 96.75861 
2.1780 96.79404 
2.1770 96.80434 
2.1760 96.74594 
2.1750 96.84164 
2.1740 96.73495 
2.1730 96.76083 
2.1720 96.78959 
2.1710 96.83420 
2.1700 96.64552 
2.1690 96.91438 
2.1680 96.69597 
2.1670 96.80850 
2.1660 96.84035 
2.1650 96.63315 
2.1640 96.81616 
2.1630 96.71581 
2.1620 96.62711 
2.1610 96.81423 
2.1600 96.61176 
2.1590 96.60371 
2.1580 96.73764 
2.1570 96.47616 
2.1560 96.60712 
2.1550 96.58953 
2.1540 96.42667 
2.1530 96.54376 
2.1520 96.41944 
2.1510 96.35483 
2.1500 96.47134 
2.1490 96.31646 
2.1480 96.30791 
2.1470 96.32880 
2.1460 96.15088 
2.1450 96.22224 
2.1440 96.15192 
2.1430 96.04034 
2.1420 96.06049 
2.1410 96.04442 
2.1400 95.96417 
2.1390 95.92392 
2.1380 95.92916 
2.1370 95.83168 
2.1360 95.85479 
2.1350 95.73684 
2.1340 95.68235 
2.1330 95.70257 
2.1320 95.57030 
2.1310 95.61042 
2.1300 95.59562 
2.1290 95.41900 
2.1280 95.56567 
2.1270 95.41425 
2.1260 95.33971 
2.1250 95.45987 
2.1240 95.32474 
2.1230 95.30492 
2.1220 95.37203 
2.1210 95.26434 
2.1200 95.34990 
2.1190 95.28602 
2.1180 95.18037 
2.1170 95.36249 
2.1160 95.15575 
2.1150 95.26469 
2.1140 95.27227 
2.1130 95.15845 
2.1120 95.39282 
2.1110 95.28173 
2.1100 95.27695 
2.1090 95.39281 
2.1080 95.29537 
2.1070 95.45175 
2.1060 95.38395 
2.1050 95.40847 
2.1040 95.49441 
2.1030 95.43053 
2.1020 95.54038 
2.1010 95.64135 
2.1000 95.61856 
2.0990 95.67589 
2.0980 95.73962 
2.0970 95.79240 
2.0960 95.87607 
2.0950 95.95257 
2.0940 95.89928 
2.0930 96.03074 
2.0920 96.07564 
2.0910 96.21382 
2.0900 96.19156 
2.0890 96.23859 
2.0880 96.33466 
2.0870 96.44730 
2.0860 96.42708 
2.0850 96.72300 
2.0840 96.60036 
2.0830 96.65717 
2.0820 96.82452 
2.0810 96.71526 
2.0800 97.08096 
2.0790 96.86378 
2.0780 96.92046 
2.0770 97.15509 
2.0760 97.06996 
2.0750 97.33346 
2.0740 97.19890 
2.0730 97.29324 
2.0720 97.43018 
2.0710 97.27271 
2.0700 97.56884 
2.0690 97.42106 
2.0680 97.50594 
2.0670 97.59456 
2.0660 97.45652 
2.0650 97.71648 
2.0640 97.60452 
2.0630 97.64076 
2.0620 97.68127 
2.0610 97.64944 
2.0600 97.68365 
2.0590 97.58904 
2.0580 97.68956 
2.0570 97.66339 
2.0560 97.66022 
2.0550 97.63692 
2.0540 97.58602 
2.0530 97.55882 
2.0520 97.60352 
2.0510 97.56866 
2.0500 97.47099 
2.0490 97.60117 
2.0480 97.46005 
2.0470 97.47158 
2.0460 97.41843 
2.0450 97.30217 
2.0440 97.44214 
2.0430 97.07635 
2.0420 97.18643 
2.0410 97.13419 
2.0400 97.00092 
2.0390 97.15350 
2.0380 96.87081 
2.0370 97.03643 
2.0360 96.79984 
2.0350 96.75729 
2.0340 96.79249 
2.0330 96.55147 
2.0320 96.80743 
2.0310 96.53763 
2.0300 96.62219 
2.0290 96.42289 
2.0280 96.33715 
2.0270 96.41280 
2.0260 96.19205 
2.0250 96.35185 
2.0240 96.11749 
2.0230 96.13654 
2.0220 96.08720 
2.0210 95.96015 
2.0200 96.05360 
2.0190 95.92291 
2.0180 96.01810 
2.0170 95.85838 
2.0160 95.88532 
2.0150 95.77463 
2.0140 95.83952 
2.0130 95.76028 
2.0120 95.82064 
2.0110 95.75616 
2.0100 95.77890 
2.0090 95.87586 
2.0080 95.73128 
2.0070 95.83389 
2.0060 95.68492 
2.0050 95.81162 
2.0040 95.71448 
2.0030 95.82723 
2.0020 95.93970 
2.0010 95.79815 
2.0000 95.92294 
1.9990 95.77676 
1.9980 95.96207 
1.9970 95.92372 
1.9960 95.96134 
1.9950 96.09826 
1.9940 95.93252 
1.9930 96.19125 
1.9920 96.01945 
1.9910 96.18587 
1.9900 96.17477 
1.9890 96.40080 
1.9880 96.39487 
1.9870 96.31904 
1.9860 96.52071 
1.9850 96.38981 
1.9840 96.60142 
1.9830 96.53053 
1.9820 96.65955 
1.9810 96.72793 
1.9800 96.66399 
1.9790 96.88297 
1.9780 96.89905 
1.9770 96.93259 
1.9760 96.99261 
1.9750 96.99733 
1.9740 97.08208 
1.9730 97.14477 
1.9720 97.14044 
1.9710 97.24133 
1.9700 97.25378 
1.9690 97.39220 
1.9680 97.33889 
1.9670 97.51362 
1.9660 97.42097 
1.9650 97.50989 
1.9640 97.55946 
1.9630 97.49942 
1.9620 97.63577 
1.9610 97.64805 
1.9600 97.77768 
1.9590 97.60472 
1.9580 97.81354 
1.9570 97.77594 
1.9560 97.79705 
1.9550 97.84144 
1.9540 97.79474 
1.9530 97.91934 
1.9520 97.83751 
1.9510 97.91847 
1.9500 97.84578 
1.9490 97.85966 
1.9480 97.86073 
1.9470 97.92693 
1.9460 97.93833 
1.9450 97.98013 
1.9440 97.91559 
1.9430 97.99073 
1.9420 97.95577 
1.9410 97.93463 
1.9400 97.95454 
1.9390 98.00382 
1.9380 97.91171 
1.9370 98.02426 
1.9360 97.93716 
1.9350 97.99272 
1.9340 97.75484 
1.9330 97.97618 
1.9320 97.94771 
1.9310 97.82761 
1.9300 97.91299 
1.9290 97.83247 
1.9280 98.09803 
1.9270 97.82866 
1.9260 97.97041 
1.9250 97.84985 
1.9240 97.68903 
1.9230 97.84827 
1.9220 97.85890 
1.9210 97.78212 
1.9200 97.94674 
1.9190 97.99587 
1.9180 97.85117 
1.9170 97.83530 
1.9160 97.75951 
1.9150 97.84359 
1.9140 97.74048 
1.9130 97.76283 
1.9120 97.87369 
1.9110 97.73750 
1.9100 97.87412 
1.9090 97.68247 
1.9080 97.80610 
1.9070 97.55466 
1.9060 97.85360 
1.9050 97.71204 
1.9040 97.80727 
1.9030 97.62875 
1.9020 97.79770 
1.9010 97.75501 
1.9000 97.62889 
1.8990 97.85012 
1.8980 97.69650 
1.8970 97.77463 
1.8960 97.65051 
1.8950 97.71850 
1.8940 97.52802 
1.8930 97.74360 
1.8920 97.60830 
1.8910 97.69431 
1.8900 97.57406 
1.8890 97.71814 
1.8880 97.64119 
1.8870 97.58155 
1.8860 97.59851 
1.8850 97.60410 
1.8840 97.53068 
1.8830 97.67417 
1.8820 97.65204 
1.8810 97.55273 
1.8800 97.67245 
1.8790 97.59285 
1.8780 97.53399 
1.8770 97.33121 
1.8760 97.53310 
1.8750 97.49029 
1.8740 97.44419 
1.8730 97.37154 
1.8720 97.66757 
1.8710 97.49334 
1.8700 97.59541 
1.8690 97.56802 
1.8680 97.17350 
1.8670 97.49275 
1.8660 97.38321 
1.8650 97.56613 
1.8640 97.34624 
1.8630 97.52612 
1.8620 97.32711 
1.8610 97.38819 
1.8600 97.26469 
1.8590 97.34165 
1.8580 97.30415 
1.8570 97.31335 
1.8560 97.05577 
1.8550 97.31982 
1.8540 97.15872 
1.8530 97.16333 
1.8520 97.26817 
1.8510 97.13829 
1.8500 97.11594 
1.8490 96.97911 
1.8480 96.97997 
1.8470 97.07182 
1.8460 97.08971 
1.8450 97.02464 
1.8440 96.92657 
1.8430 96.84898 
1.8420 96.90986 
1.8410 97.00784 
1.8400 96.98887 
1.8390 96.97998 
1.8380 96.85092 
1.8370 97.07131 
1.8360 96.90648 
1.8350 96.89360 
1.8340 97.05178 
1.8330 96.78727 
1.8320 96.99240 
1.8310 96.77785 
1.8300 96.98421 
1.8290 96.75642 
1.8280 96.97462 
1.8270 96.87961 
1.8260 96.82671 
1.8250 96.94985 
1.8240 97.11954 
1.8230 96.94381 
1.8220 96.92219 
1.8210 96.85437 
1.8200 97.13588 
1.8190 97.11151 
1.8180 97.18430 
1.8170 97.08685 
1.8160 97.17604 
1.8150 97.09771 
1.8140 97.37839 
1.8130 97.08743 
1.8120 97.40038 
1.8110 97.32037 
1.8100 97.57201 
1.8090 97.39431 
1.8080 97.59219 
1.8070 97.37572 
1.8060 97.56595 
1.8050 97.52522 
1.8040 97.71288 
1.8030 97.60185 
1.8020 97.62122 
1.8010 97.74638 
1.8000 97.81468 
1.7990 97.82404 
1.7980 97.79998 
1.7970 97.83482 
1.7960 97.84035 
1.7950 97.90913 
1.7940 97.79945 
1.7930 97.91772 
1.7920 97.77366 
1.7910 97.89687 
1.7900 97.75419 
1.7890 97.90121 
1.7880 97.68571 
1.7870 97.81253 
1.7860 97.63253 
1.7850 97.80975 
1.7840 97.52714 
1.7830 97.75710 
1.7820 97.54202 
1.7810 97.62095 
1.7800 97.46975 
1.7790 97.55408 
1.7780 97.33990 
1.7770 97.41590 
1.7760 97.30676 
1.7750 97.24714 
1.7740 97.24572 
1.7730 97.13899 
1.7720 97.05403 
1.7710 96.91444 
1.7700 97.01721 
1.7690 96.72390 
1.7680 96.94640 
1.7670 96.70657 
1.7660 96.88410 
1.7650 96.51536 
1.7640 96.70435 
1.7630 96.43103 
1.7620 96.60683 
1.7610 96.42005 
1.7600 96.48606 
1.7590 96.43017 
1.7580 96.46344 
1.7570 96.46051 
1.7560 96.29700 
1.7550 96.47144 
1.7540 96.35623 
1.7530 96.56738 
1.7520 96.29594 
1.7510 96.51701 
1.7500 96.40054 
1.7490 96.53725 
1.7480 96.47711 
1.7470 96.52174 
1.7460 96.60445 
1.7450 96.56255 
1.7440 96.66763 
1.7430 96.61378 
1.7420 96.91580 
1.7410 96.70651 
1.7400 96.99115 
1.7390 96.82745 
1.7380 96.99575 
1.7370 96.86866 
1.7360 97.00508 
1.7350 97.24404 
1.7340 97.13209 
1.7330 97.33565 
1.7320 97.11298 
1.7310 97.43101 
1.7300 97.21035 
1.7290 97.30779 
1.7280 97.21533 
1.7270 97.36847 
1.7260 97.41064 
1.7250 97.24909 
1.7240 97.43404 
1.7230 97.16927 
1.7220 97.34166 
1.7210 97.13064 
1.7200 97.25454 
1.7190 97.06121 
1.7180 97.04518 
1.7170 97.04517 
1.7160 96.79000 
1.7150 96.94145 
1.7140 96.66405 
1.7130 96.69463 
1.7120 96.54658 
1.7110 96.45631 
1.7100 96.46230 
1.7090 96.22415 
1.7080 96.32432 
1.7070 96.01151 
1.7060 96.11632 
1.7050 95.88499 
1.7040 95.81592 
1.7030 95.86737 
1.7020 95.57248 
1.7010 95.69576 
1.7000 95.43610 
1.6990 95.54510 
1.6980 95.40503 
1.6970 95.28825 
1.6960 95.37253 
1.6950 95.09006 
1.6940 95.32439 
1.6930 95.08365 
1.6920 95.13763 
1.6910 95.15005 
1.6900 95.02404 
1.6890 95.24085 
1.6880 95.00907 
1.6870 95.08109 
1.6860 95.08068 
1.6850 95.10091 
1.6840 95.26727 
1.6830 95.11823 
1.6820 95.36105 
1.6810 95.18101 
1.6800 95.39886 
1.6790 95.42551 
1.6780 95.38786 
1.6770 95.64793 
1.6760 95.44976 
1.6750 95.71622 
1.6740 95.74625 
1.6730 95.72081 
1.6720 95.98876 
1.6710 95.86415 
1.6700 96.06693 
1.6690 96.08447 
1.6680 96.02499 
1.6670 96.26469 
1.6660 96.11376 
1.6650 96.33112 
1.6640 96.34370 
1.6630 96.37001 
1.6620 96.51834 
1.6610 96.38218 
1.6600 96.60539 
1.6590 96.53474 
1.6580 96.54749 
1.6570 96.62767 
1.6560 96.52454 
1.6550 96.64771 
1.6540 96.51504 
1.6530 96.52235 
1.6520 96.66703 
1.6510 96.44164 
1.6500 96.59411 
1.6490 96.52303 
1.6480 96.37131 
1.6470 96.51668 
1.6460 96.36691 
1.6450 96.28295 
1.6440 96.42159 
1.6430 96.16259 
1.6420 96.31622 
1.6410 96.16632 
1.6400 96.05991 
1.6390 96.23116 
1.6380 96.03111 
1.6370 96.05933 
1.6360 96.11961 
1.6350 95.84320 
1.6340 95.96358 
1.6330 95.89505 
1.6320 95.80805 
1.6310 95.92454 
1.6300 95.80932 
1.6290 95.82835 
1.6280 95.77570 
1.6270 95.68693 
1.6260 95.79691 
1.6250 95.64218 
1.6240 95.63985 
1.6230 95.81008 
1.6220 95.56937 
1.6210 95.63085 
1.6200 95.67194 
1.6190 95.47575 
1.6180 95.67879 
1.6170 95.65439 
1.6160 95.50203 
1.6150 95.65607 
1.6140 95.59721 
1.6130 95.55172 
1.6120 95.58987 
1.6110 95.45654 
1.6100 95.53706 
1.6090 95.58282 
1.6080 95.51756 
1.6070 95.56693 
1.6060 95.55647 
1.6050 95.48260 
1.6040 95.57914 
1.6030 95.47369 
1.6020 95.46760 
1.6010 95.62691 
1.6000 95.41122 
1.5990 95.54022 
1.5980 95.60110 
1.5970 95.41733 
1.5960 95.54076 
1.5950 95.61676 
1.5940 95.49026 
1.5930 95.44969 
1.5920 95.61312 
1.5910 95.44050 
1.5900 95.52400 
1.5890 95.57581 
1.5880 95.45761 
1.5870 95.47337 
1.5860 95.48599 
1.5850 95.46172 
1.5840 95.52390 
1.5830 95.46835 
1.5820 95.42585 
1.5810 95.53352 
1.5800 95.40419 
1.5790 95.44728 
1.5780 95.50622 
1.5770 95.38029 
1.5760 95.34168 
1.5750 95.49992 
1.5740 95.39243 
1.5730 95.28957 
1.5720 95.41252 
1.5710 95.37546 
1.5700 95.28391 
1.5690 95.33436 
1.5680 95.41711 
1.5670 95.30486 
1.5660 95.33317 
1.5650 95.29942 
1.5640 95.27994 
1.5630 95.31637 
1.5620 95.33295 
1.5610 95.29089 
1.5600 95.36207 
1.5590 95.31869 
1.5580 95.32423 
1.5570 95.42831 
1.5560 95.49976 
1.5550 95.37742 
1.5540 95.40115 
1.5530 95.52938 
1.5520 95.51955 
1.5510 95.55173 
1.5500 95.56525 
1.5490 95.55286 
1.5480 95.55905 
1.5470 95.67580 
1.5460 95.67551 
1.5450 95.57602 
1.5440 95.64229 
1.5430 95.71909 
1.5420 95.62682 
1.5410 95.65302 
1.5400 95.66850 
1.5390 95.60960 
1.5380 95.55984 
1.5370 95.63753 
1.5360 95.63197 
1.5350 95.54311 
1.5340 95.57436 
1.5330 95.55293 
1.5320 95.54785 
1.5310 95.37879 
1.5300 95.57143 
1.5290 95.55282 
1.5280 95.35914 
1.5270 95.49279 
1.5260 95.44999 
1.5250 95.41431 
1.5240 95.29935 
1.5230 95.21283 
1.5220 95.33614 
1.5210 95.31684 
1.5200 95.19085 
1.5190 95.14642 
1.5180 95.17746 
1.5170 95.13055 
1.5160 95.04751 
1.5150 94.96119 
1.5140 94.85909 
1.5130 94.75796 
1.5120 94.63201 
1.5110 94.51279 
1.5100 94.41772 
1.5090 94.29908 
1.5080 94.11301 
1.5070 93.90645 
1.5060 93.81808 
1.5050 93.62495 
1.5040 93.37816 
1.5030 93.22808 
1.5020 93.01019 
1.5010 92.80202 
1.5000 92.58611 
1.4990 92.26262 
1.4980 91.94507 
1.4970 91.52610 
1.4960 91.01611 
1.4950 90.40542 
1.4940 89.64725 
1.4930 88.57949 
1.4920 87.27238 
1.4910 85.67580 
1.4900 83.77683 
1.4890 81.42879 
1.4880 78.63013 
1.4870 75.53731 
1.4860 71.85741 
1.4850 67.62839 
1.4840 63.46498 
1.4830 58.97709 
1.4820 54.18776 
1.4810 49.74800 
1.4800 44.85495 
1.4790 40.23426 
1.4780 36.04919 
1.4770 32.18940 
1.4760 28.60913 
1.4750 25.30564 
1.4740 22.43178 
1.4730 19.71161 
1.4720 17.29247 
1.4710 15.35399 
1.4700 13.59586 
1.4690 12.04699 
1.4680 10.66783 
1.4670 9.42419 
1.4660 8.40567 
1.4650 7.50660 
1.4640 6.73570 
1.4630 6.05600 
1.4620 5.46779 
1.4610 4.97640 
1.4600 4.45772 
1.4590 4.05429 
1.4580 3.66242 
1.4570 3.39838 
1.4560 3.10518 
1.4550 2.85877 
1.4540 2.64474 
1.4530 2.42370 
1.4520 2.32972 
1.4510 2.08315 
1.4500 1.98331 
1.4490 1.81111 
1.4480 1.73856 
1.4470 1.63128 
1.4460 1.54299 
1.4450 1.47008 
1.4440 1.38424 
1.4430 1.32332 
1.4420 1.23309 
1.4410 1.18997 
1.4400 1.11244 
1.4390 1.10931 
1.4380 1.01964 
1.4370 1.00355 
1.4360 0.93672 
1.4350 0.86941 
1.4340 0.86829 
1.4330 0.76479 
1.4320 0.76583 
1.4310 0.75271 
1.4300 0.69944 
1.4290 0.68956 
1.4280 0.66627 
1.4270 0.60708 
1.4260 0.55874 
1.4250 0.54301 
1.4240 0.52557 
1.4230 0.49491 
1.4220 0.46554 
1.4210 0.51150 
1.4200 0.44285 
1.4190 0.45070 
1.4180 0.39057 
1.4170 0.41573 
1.4160 0.37230 
1.4150 0.37102 
1.4140 0.42397 
1.4130 0.35856 
1.4120 0.36217 
1.4110 0.31505 
1.4100 0.31211 
1.4090 0.34501 
1.4080 0.26937 
1.4070 0.34493 
1.4060 0.29628 
1.4050 0.28281 
1.4040 0.32310 
1.4030 0.28242 
1.4020 0.28896 
1.4010 0.33926 
1.4000 0.31473 
