# Obtained using Skycalc tool from ESO webpage
# Not including telescope emissivity
Wave[nm] Radiance[photons/s/m**2/micron/arsec**2]
800 268.345
800.4001 227.615
800.8004 199.063
801.2009 201.521
801.601601 1050.18
802.002502 227.549
802.403604 366.833
802.804906 2657.63
803.206409 488.075
803.608112 213.393
804.010017 197.223
804.412122 217.483
804.814429 195.219
805.216937 263.115
805.619646 735.262
806.022556 202.586
806.425668 1299.45
806.828982 214.71
807.232497 188.569
807.636215 224.501
808.040134 257.342
808.444255 190.475
808.848578 302.668
809.253103 191.392
809.657831 454.857
810.062761 196.868
810.467894 703.639
810.873229 227.574
811.278767 212.688
811.684508 197.431
812.090452 199.666
812.496598 209.772
812.902948 219.859
813.309501 230.756
813.716258 229.393
814.123218 356.211
814.530381 199.818
814.937748 436.581
815.345319 207.138
815.753093 192.83
816.161072 194.242
816.569255 180.326
816.977641 196.479
817.386232 195.292
817.795028 193.629
818.204027 192.344
818.613232 201.218
819.022641 270.364
819.432254 198.83
819.842073 294.631
820.252096 201.337
820.662325 224.928
821.072759 247.893
821.483398 221.211
821.894242 221.751
822.305292 209.186
822.716548 202.516
823.128009 185.968
823.539676 198.176
823.951548 212.834
824.363627 268.157
824.775912 254.466
825.188403 249.53
825.6011 249.648
826.014004 209.021
826.427115 217.377
826.840431 221.018
827.253955 230.851
827.667685 214.336
828.081623 1037.38
828.495767 2013.76
828.910119 2952.3
829.324677 354.93
829.739443 1074.65
830.154417 2815.77
830.569598 405.042
830.984986 241.316
831.400583 1162.29
831.816387 275.78
832.232399 296.417
832.648619 233.322
833.065048 230.985
833.481684 232.641
833.898529 338.854
834.315583 232.47
834.732845 7654.8
835.150316 443.698
835.567995 2499.12
835.985884 251.64
836.403981 490.906
836.822288 1064.5
837.240804 252.284
837.659529 275.249
838.078463 350.354
838.497607 1931.95
838.916961 262.174
839.336524 331.755
839.756297 257.652
840.176281 5756.45
840.596474 249.559
841.016877 250.095
841.437491 251.937
841.858315 2240.37
842.279349 253.439
842.700594 364.755
843.12205 5614.25
843.543716 392.235
843.965593 264.283
844.387682 257.882
844.809981 312.081
845.232492 288.672
845.655214 2028.73
846.078147 280.901
846.501292 299.556
846.924648 4782.42
847.348217 264.374
847.771997 379.622
848.195989 265.807
848.620193 267.03
849.044609 267.673
849.469237 1561.08
849.894078 331.83
850.319131 363.232
850.744397 2540.2
851.169876 272.318
851.595567 272.587
852.021471 273.715
852.447589 338.17
852.873919 275.787
853.300463 276.689
853.72722 277.437
854.15419 2159.28
854.581374 318.957
855.008771 1137.44
855.436383 281.096
855.864208 282.049
856.292247 282.993
856.7205 283.997
857.148967 284.743
857.577649 423.48
858.006545 341.731
858.435656 287.139
858.864981 507.174
859.294521 288.046
859.724275 453.436
860.154245 456.658
860.58443 308.157
861.014829 322.814
861.445444 394.207
861.876275 724.322
862.307321 716.316
862.738582 1291.66
863.170059 1236.29
863.601752 1725.95
864.033661 918.032
864.465786 484.135
864.898127 737.025
865.330684 1474.26
865.763458 1660.55
866.196448 1759.82
866.629654 1687.73
867.063077 857.799
867.496717 1325.63
867.930574 746.73
868.364648 890.36
868.798939 655.461
869.233447 394.655
869.668172 411.202
870.103115 532.781
870.538275 337.193
870.973653 524.361
871.409249 323.361
871.845063 314.374
872.281094 308.945
872.717344 355.582
873.153812 303.805
873.590498 304.133
874.027402 359.291
874.464525 372.701
874.901867 315.745
875.339427 354.483
875.777206 305.86
876.215204 5341.55
876.653421 443.366
877.091858 5702.09
877.530513 337.958
877.969388 6299.79
878.408483 307.829
878.847797 308.201
879.287331 2156.53
879.727084 308.947
880.167058 309.217
880.607251 327.094
881.047665 508.214
881.488299 390.066
881.929153 310.637
882.370228 310.695
882.811524 11846.3
883.25304 578.697
883.694777 5232.28
884.136734 399.7
884.578913 380.28
885.021313 1072.12
885.463935 964.791
885.906777 312.969
886.349842 515.818
886.793127 3362.39
887.236635 318.332
887.680364 315.083
888.124315 314.525
888.568488 333.28
889.012884 8686.57
889.457501 372.994
889.902341 476.577
890.347404 3739.99
890.792689 392.23
891.238196 504.154
891.683927 334.518
892.12988 9389.67
892.576057 381.479
893.022456 557.117
893.469079 366.907
893.915925 393.838
894.362995 1369.94
894.810289 2268.52
895.257806 313.944
895.705546 314.215
896.153511 7784.63
896.6017 325.078
897.050113 352.198
897.49875 465.513
897.947612 379.552
898.396698 503.713
898.846008 436.638
899.295544 2424.45
899.745304 333.552
900.195289 4346.33
900.645499 306.962
901.095935 309.704
901.546595 311.018
901.997481 295.042
902.448593 405.961
902.89993 359.617
903.351493 375.988
903.803281 326.416
904.255296 1348.99
904.707537 367.101
905.160004 2295.93
905.612697 347.793
906.065616 377.085
906.518762 392.071
906.972135 478.069
907.425735 383.128
907.879561 336.189
908.333614 327.463
908.787895 315.844
909.242402 353.316
909.697137 949.56
910.152099 337.899
910.607289 1271.2
911.062707 322.073
911.518352 331.693
911.974225 302.91
912.430326 332.177
912.886655 323.419
913.343213 306.68
913.799999 356.615
914.257013 348.767
914.714256 333.444
915.171727 407.383
915.629427 739.617
916.087357 467.436
916.545515 856.308
917.003902 327.762
917.462519 314.074
917.921365 322.822
918.38044 333.645
918.839745 323.103
919.29928 332.958
919.759045 324.057
920.219039 346.363
920.679264 346.029
921.139718 354.941
921.600403 342.104
922.061319 652.003
922.522465 626.268
922.983841 543.933
923.445449 337.546
923.907287 333.24
924.369356 335.722
924.831656 332.842
925.294188 335.676
925.75695 340.605
926.219945 335.368
926.68317 340.155
927.146628 341.971
927.610317 336.098
928.074238 317.58
928.538391 329.898
929.002777 329.96
929.467394 329.028
929.932244 310.669
930.397326 307.007
930.862641 4152.05
931.328189 2290.82
931.79397 4884.98
932.259983 433.296
932.72623 5792.88
933.192709 328.017
933.659422 240.768
934.126369 1713.07
934.593549 162.993
935.060962 323.442
935.52861 232.229
935.996491 223.841
936.464606 326.985
936.932956 258.213
937.401539 218.592
937.870357 12849.6
938.33941 632.973
938.808697 361.652
939.278219 333.617
939.747975 509.506
940.217967 301.824
940.688193 2027.12
941.158655 285.184
941.629352 334.935
942.100284 2864.44
942.571452 862.763
943.042856 219.161
943.514495 314.343
943.98637 4190.91
944.458481 4085.99
944.930829 493.665
945.403412 327.489
945.876232 1908.27
946.349289 1884.84
946.822581 324.316
947.296111 308.54
947.769878 7974.82
948.243881 293.235
948.718122 325.32
949.192599 344.39
949.667314 269.98
950.142267 246.996
950.617456 3089.79
951.092884 353.874
951.568549 345.76
952.044453 5037.88
952.520594 284.743
952.996973 292.465
953.473591 347.413
953.950447 314.235
954.427541 310.959
954.904875 301.157
955.382446 2119.04
955.860257 285.734
956.338307 338.185
956.816595 4240.19
957.295123 325.124
957.77389 355.796
958.252897 298.328
958.732143 355.017
959.211629 292.082
959.691355 321.014
960.171321 333.321
960.651526 326.429
961.131972 1174.47
961.612658 342.538
962.093585 1246.8
962.574752 659.606
963.05616 338.422
963.537808 370.157
964.019698 320.185
964.501828 353.778
964.9842 322.629
965.466812 417.53
965.949666 624.356
966.432762 449.832
966.916099 1624.81
967.399678 354.002
967.883499 852.25
968.367562 3658.73
968.851867 373.864
969.336414 1626.07
969.821203 375.884
970.306235 5929.58
970.791509 378.49
971.277026 2694.02
971.762786 362.277
972.248789 7493.73
972.735035 362.465
973.221524 372.935
973.708257 459.702
974.195233 2945.51
974.682452 554.025
975.169915 363.226
975.657622 367.013
976.145573 362.153
976.633768 358.791
977.122207 381.823
977.61089 378.263
978.099817 373.971
978.58899 369.313
979.078406 2391.61
979.568068 16635.9
980.057975 7360.56
980.548126 371.383
981.038523 646.187
981.529165 2474.63
982.020052 429.549
982.511185 460.992
983.002563 937.704
983.494187 384.782
983.986057 388.905
984.478173 385.395
984.970536 4751.57
985.463144 390.033
985.955999 390.816
986.4491 391.941
986.942448 393.953
987.436043 14566.2
987.929884 392.324
988.423973 393.493
988.918308 399.463
989.412891 394.17
989.907721 5590.12
990.402799 396.74
990.898124 395.088
991.393697 395.754
991.889518 14949.4
992.385586 396.335
992.881903 395.644
993.378468 397.195
993.875282 398.241
994.372344 5312.48
994.869654 12324.7
995.367213 719.601
995.865021 7861.14
996.363078 9992.4
996.861384 400.086
997.35994 2287.72
997.858744 455.568
998.357799 428.545
998.857102 401.656
999.356656 401.82
999.856459 402.61
1000.35651 2421.16
1000.85682 403.548
1001.35737 14232.9
1001.85817 4666.45
1002.35923 828.219
1002.86053 5465.56
1003.36209 408.697
1003.86389 589.996
1004.36595 405.97
1004.86826 2381.23
1005.37082 406.63
1005.87363 407.374
1006.37669 3888.98
1006.88001 1104.61
1007.38357 1872.21
1007.88739 408.394
1008.39146 9262.84
1008.89578 409.218
1009.40036 437.931
1009.90518 626.19
1010.41026 4015.22
1010.91559 411.227
1011.42118 411.698
1011.92701 411.577
1012.43311 5842.96
1012.93945 5635.82
1013.44604 854.937
1013.95289 413.756
1014.46 581.564
1014.96735 1152.58
1015.47496 3944.3
1015.98283 2754.32
1016.49095 1599.43
1016.99932 418.211
1017.50795 14872.6
1018.01683 416.89
1018.52596 3357.51
1019.03535 13030.3
1019.545 462.275
1020.0549 495.713
1020.56505 5584.19
1021.07546 2541.28
1021.58613 15972.1
1022.09705 420.475
1022.60823 2834.41
1023.11966 8420.98
1023.63135 420.572
1024.14329 420.994
1024.65549 422.068
1025.16795 422.329
1025.68066 422.651
1026.19363 423.082
1026.70685 431.092
1027.22033 1538.44
1027.73407 424.034
1028.24807 425.238
1028.76232 47384
1029.27683 1033.56
1029.7916 15433.9
1030.30662 426.416
1030.8219 933.431
1031.33744 5088.38
1031.85324 427.613
1032.3693 604.681
1032.88561 1738.96
1033.40218 434.567
1033.91901 437.197
1034.4361 898.4
1034.95345 9252.12
1035.47105 1267.13
1035.98892 813.124
1036.50704 449.942
1037.02543 452.441
1037.54407 29624.1
1038.06297 516.426
1038.58213 460.185
1039.10155 462.753
1039.62123 465.279
1040.14117 11362.2
1040.66138 472.755
1041.18184 482.234
1041.70256 630.155
1042.22354 31098.3
1042.74478 480.713
1043.26628 763.433
1043.78805 485.839
1044.31007 485.309
1044.83236 482.775
1045.3549 8793.88
1045.87771 475.031
1046.40078 471.729
1046.92411 10545.9
1047.44771 10537.5
1047.97156 461.799
1048.49568 458.481
1049.02006 454.978
1049.5447 451.481
1050.0696 491.033
1050.59477 445.08
1051.1202 4945.09
1051.64589 475.104
1052.17184 434.882
1052.69806 10038.8
1053.22454 428.222
1053.75128 424.848
1054.27829 421.474
1054.80556 418.037
1055.3331 414.621
1055.8609 411.173
1056.38896 407.723
1056.91728 404.255
1057.44588 2165.27
1057.97473 397.309
1058.50385 393.865
1059.03323 3857.81
1059.56288 387.013
1060.0928 391.49
1060.62298 388.147
1061.15342 376.83
1061.68413 373.524
1062.2151 372.886
1062.74634 376.654
1063.27785 380.317
1063.80962 384.064
1064.34166 914.897
1064.87396 391.263
1065.40653 1355.05
1065.93937 399.001
1066.47247 402.94
1067.00584 406.802
1067.53948 410.591
1068.07338 414.423
1068.60755 708.624
1069.14199 1596.11
1069.6767 977.725
1070.21167 3886.44
1070.74691 2168.02
1071.28241 9398.13
1071.81819 565.136
1072.35423 4534.96
1072.89054 660.718
1073.42712 17420.1
1073.96397 460.259
1074.50109 7342.59
1075.03847 467.718
1075.57613 20764.9
1076.11405 476.29
1076.65224 480.052
1077.1907 483.646
1077.72943 7525.92
1078.26843 491.367
1078.8077 496.332
1079.34724 521.465
1079.88705 503.872
1080.42712 539.333
1080.96747 511.712
1081.50809 513.154
1082.04898 518.391
1082.59014 514.815
1083.13157 6063.61
1083.67327 51866.4
1084.21524 20909.8
1084.75749 495.794
1085.3 1154.78
1085.84279 6784.56
1086.38585 473.173
1086.92917 477.234
1087.47277 711.707
1088.01665 2311.08
1088.56079 469.41
1089.10521 458.06
1089.6499 11639.8
1090.19486 837.197
1090.74009 445.613
1091.2856 443.135
1091.83138 438.56
1092.37743 25293.3
1092.92375 12119.2
1093.47035 516.873
1094.01722 418.847
1094.56437 411.909
1095.11179 14449
1095.65948 401.566
1096.20745 398.022
1096.75569 413.734
1097.3042 40041.3
1097.85299 378.822
1098.40206 381.337
1098.9514 372.908
1099.50101 363.46
1100.0509 363.631
1100.60106 363.353
1101.1515 11329.7
1101.70221 350.45
1102.2532 344.76
1102.80446 27096.7
1103.356 343.907
1103.90782 347.494
1104.45991 331.164
1105.01228 342.9
1105.56493 334.602
1106.11785 327.582
1106.67104 330.156
1107.22452 6432.86
1107.77827 330.754
1108.3323 317.333
1108.8866 13704.3
1109.44118 327.35
1109.99604 326.547
1110.55118 307.31
1111.10659 304.37
1111.66228 301.208
1112.21825 316.114
1112.7745 298.511
1113.33103 278.077
1113.88783 2805.19
1114.44492 314.052
1115.00228 242.887
1115.55992 5103.72
1116.11784 262.856
1116.67604 169.508
1117.23451 237.272
1117.79327 285.529
1118.35231 247.644
1118.91162 235.488
1119.47122 214.868
1120.0311 251.556
1120.59125 225.706
1121.15169 246.946
1121.7124 736.614
1122.2734 154.464
1122.83468 822.011
1123.39623 246.648
1123.95807 192.539
1124.52019 262.412
1125.08259 249.912
1125.64527 108.772
1126.20824 213.173
1126.77148 273.955
1127.33501 232.999
1127.89882 208.137
1128.46291 248.991
1129.02728 2072.53
1129.59194 1067.28
1130.15687 4258.79
1130.72209 2821.6
1131.2876 11175.5
1131.85338 307.026
1132.41945 5034.12
1132.9858 18882.2
1133.55243 194.28
1134.11935 222.55
1134.68655 66.9651
1135.25404 16885.1
1135.82181 257.509
1136.38986 277.491
1136.9582 335.469
1137.52682 2964.5
1138.09572 378.906
1138.66491 301.218
1139.23439 386.776
1139.80415 278.162
1140.37419 351.677
1140.94452 272.961
1141.51514 296.747
1142.08604 307.724
1142.65722 336.014
1143.2287 350.662
1143.80045 53335.9
1144.3725 236.612
1144.94483 22254.6
1145.51744 281.64
1146.09034 974.176
1146.66353 6935.84
1147.23701 241.905
1147.81077 295.907
1148.38482 628.045
1148.95915 2423.51
1149.53378 273.885
1150.10869 272.23
1150.68389 1160.41
1151.25937 388.216
1151.83514 877.916
1152.41121 282.099
1152.98756 303.635
1153.56419 311.318
1154.14112 39622.2
1154.71834 319.812
1155.29584 450.715
1155.87363 294.802
1156.45171 9845.52
1157.03008 339.545
1157.60874 306.52
1158.18769 346.883
1158.76693 322
1159.34646 42635.2
1159.92628 326.597
1160.50639 309.884
1161.08678 346.778
1161.66747 339.769
1162.24845 326.771
1162.82972 12823.3
1163.41128 351.837
1163.99313 344.872
1164.57527 353.873
1165.15771 29905.4
1165.74043 336.287
1166.32345 349.797
1166.90676 340.015
1167.49035 351.605
1168.07425 351.199
1168.65843 346.062
1169.2429 347.934
1169.82767 7790.47
1170.41273 346.53
1170.99808 349.322
1171.58373 16718
1172.16967 345.379
1172.7559 352.896
1173.34242 350.555
1173.92924 324.82
1174.51635 346.967
1175.10376 346.997
1175.69146 339.579
1176.27945 347.828
1176.86774 3611.21
1177.45632 321.694
1178.04519 327.824
1178.63436 6886.42
1179.22383 334.123
1179.81359 313.644
1180.40364 328.573
1180.99399 322.84
1181.58464 296.322
1182.17558 296.477
1182.76681 312.767
1183.35834 314.251
1183.95017 310.576
1184.54229 290.241
1185.13471 1397.08
1185.72743 302.63
1186.32044 1330.11
1186.91375 1326.45
1187.50735 280.666
1188.10125 279.772
1188.69545 283.467
1189.28995 282.116
1189.88474 286.084
1190.47984 278.645
1191.07522 274.75
1191.67091 275.055
1192.26689 275.761
1192.86318 272.222
1193.45976 260.173
1194.05664 563.89
1194.65381 263.043
1195.25129 760.377
1195.84907 255.102
1196.44714 254.269
1197.04551 2984.7
1197.64419 4947.75
1198.24316 2763.45
1198.84243 11773.5
1199.442 237.353
1200.04187 5518.18
1200.64204 20653.4
1201.24251 232.913
1201.84328 225.19
1202.44436 8383.27
1203.04573 22899.4
1203.6474 204.78
1204.24938 317.969
1204.85165 210.603
1205.45423 8162.76
1206.05711 213.975
1206.66029 207.837
1207.26377 202.315
1207.86755 202.955
1208.47163 202.191
1209.07602 198.306
1209.68071 200.375
1210.2857 202.206
1210.891 202.078
1211.49659 195.257
1212.10249 60983.2
1212.7087 199.332
1213.3152 23193.7
1213.92201 204.25
1214.52912 204.271
1215.13654 942.782
1215.74426 7642.8
1216.35228 195.806
1216.96061 193.64
1217.56924 488.299
1218.17818 2626.7
1218.78742 191.573
1219.39697 11962.2
1220.00682 191.368
1220.61698 287.637
1221.22744 859.185
1221.8382 187.899
1222.44928 187.382
1223.06065 39518
1223.67234 186.719
1224.28432 214.242
1224.89662 346.123
1225.50922 15598.2
1226.12213 185.389
1226.73534 184.114
1227.34886 182.326
1227.96269 183.604
1228.57683 44260.2
1229.19127 213.023
1229.80602 180.736
1230.42108 180.962
1231.03644 180.29
1231.65211 179.572
1232.26809 179.126
1232.88438 12981.6
1233.50098 178.377
1234.11788 182.19
1234.73509 176.245
1235.35262 31956.3
1235.97045 175.056
1236.58859 174.147
1237.20704 173.4
1237.82579 172.772
1238.44486 172.61
1239.06424 172.79
1239.68393 173.201
1240.30392 7941.71
1240.92423 172.853
1241.54485 176.844
1242.16577 17423.2
1242.78701 186.63
1243.40856 173.382
1244.03042 216.923
1244.65259 173.543
1245.27507 304.166
1245.89787 173.681
1246.52097 527.766
1247.14439 173.808
1247.76812 173.855
1248.39216 4612.17
1249.01651 173.955
1249.64117 1994.92
1250.26615 7432.72
1250.89144 3484.56
1251.51704 174.058
1252.14296 174.1
1252.76918 5337.05
1253.39573 174.105
1254.02258 6697.42
1254.64975 174.053
1255.27723 173.994
1255.90503 6872.48
1256.53314 182.244
1257.16156 7682.73
1257.7903 331.555
1258.41935 1227.6
1259.04872 10034.8
1259.6784 4302.95
1260.30839 7352.88
1260.93871 14270.1
1261.56933 11027.9
1262.20028 5509.18
1262.83153 12849.6
1263.46311 6543.26
1264.095 9906.53
1264.7272 3447.08
1265.35972 1256.12
1265.99256 11588.9
1266.62572 7808.4
1267.25919 10134.8
1267.89298 2610.23
1268.52708 56307.7
1269.1615 34751.4
1269.79624 35851.9
1270.4313 13860.7
1271.06667 9772.26
1271.70237 4938.41
1272.33838 14496
1272.9747 10714.3
1273.61135 4582.1
1274.24832 15223
1274.8856 14565.5
1275.5232 6582.32
1276.16112 35221.7
1276.79936 218.092
1277.43792 16505.2
1278.0768 23086.6
1278.716 12165.5
1279.35552 2764.7
1279.99535 9965.15
1280.63551 27431.6
1281.27599 1349.17
1281.91679 743.984
1282.55791 6269.05
1283.19935 7726
1283.84111 181.287
1284.48319 4207.79
1285.12559 247.426
1285.76831 204.425
1286.41136 2660.51
1287.05472 188.105
1287.69841 188.272
1288.34242 198.513
1288.98676 1500.53
1289.63141 208.688
1290.27639 53654.9
1290.92169 797.689
1291.56731 1801.23
1292.21325 19184.1
1292.85952 290.328
1293.50611 1019.1
1294.15303 7336.42
1294.80027 183.42
1295.44783 277.501
1296.09571 455.245
1296.74392 185.239
1297.39246 2600.96
1298.04132 183.713
1298.6905 10436.3
1299.34001 182.223
1299.98984 291.378
1300.64 878.449
1301.29048 185.328
1301.94129 34644.7
1302.59242 183.387
1303.24388 181.272
1303.89566 182.473
1304.54778 203.828
1305.20021 14113.5
1305.85298 183.76
1306.50607 175.674
1307.15948 180.81
1307.81323 178.167
1308.4673 39705.2
1309.12169 185.845
1309.77642 178.445
1310.43147 212.893
1311.08685 185.145
1311.74256 187.663
1312.39859 179.247
1313.05495 11926.7
1313.71165 168.018
1314.36867 181.218
1315.02601 178.9
1315.68369 22151.3
1316.3417 193.362
1317.00003 172.784
1317.6587 188.14
1318.31769 176.15
1318.97702 177.627
1319.63667 178.669
1320.29665 163.247
1320.95697 7471.49
1321.61761 182.314
1322.27858 188.505
1322.93989 174.725
1323.60152 16908.1
1324.26349 180.12
1324.92579 204.589
1325.58842 192.837
1326.25138 202.381
1326.91467 190.934
1327.57829 201.46
1328.24225 190.352
1328.90653 180.68
1329.57115 204.066
1330.2361 1900.06
1330.90139 194.815
1331.56701 171.537
1332.23296 5404.15
1332.89924 210.048
1333.56586 188.176
1334.2328 208.607
1334.90009 205.022
1335.56771 225.904
1336.23566 183.022
1336.90394 209.881
1337.57256 205.46
1338.24151 211.364
1338.9108 217.595
1339.58042 220.347
1340.25038 851.556
1340.92067 233.99
1341.5913 197.041
1342.26227 2848.52
1342.93356 215.749
1343.6052 215.917
1344.27717 146.609
1344.94948 206.901
1345.62212 185.184
1346.2951 182.241
1346.96841 215.954
1347.64207 109.027
1348.31606 113.724
1348.99038 147.394
1349.66505 202.532
1350.34005 95.3832
1351.01539 392.126
1351.69106 66.4219
1352.36708 345.052
1353.04343 357.686
1353.72012 108.344
1354.39715 27.4859
1355.07452 26.0928
1355.75223 37.3326
1356.43027 89.2254
1357.10866 49.3901
1357.78738 41.6222
1358.46644 30.5811
1359.14585 38.2368
1359.82559 29.2105
1360.50567 26.0102
1361.1861 7.3615
1361.86686 1.23594
1362.54796 3.74156
1363.22941 52.4883
1363.91119 37.4194
1364.59332 10.0635
1365.27579 7.0573
1365.95859 55.1916
1366.64174 2755.48
1367.32524 161.903
1368.00907 4.25109
1368.69324 11.0504
1369.37776 948.709
1370.06262 17.2249
1370.74783 15.21
1371.43337 201.607
1372.11926 12.8026
1372.80549 34.0264
1373.49206 46.1461
1374.17898 37.3273
1374.86624 1320.74
1375.55385 79.7843
1376.2418 36.5538
1376.93009 21.0116
1377.61873 89.0886
1378.30771 39.6845
1378.99703 21.1523
1379.68671 71.2961
1380.37672 3.55953
1381.06708 7.50663
1381.75779 31.9446
1382.44884 810.912
1383.14024 11.4547
1383.83198 197.212
1384.52407 5627.78
1385.2165 7.76766
1385.90929 96.7791
1386.60241 3730.03
1387.29589 63.4399
1387.98971 3.80502
1388.68388 50.6326
1389.37839 260.494
1390.07326 1499.55
1390.76847 55.8588
1391.46403 2998.06
1392.15993 19.9744
1392.85619 29.3886
1393.55279 108.89
1394.24974 134.314
1394.94704 20.2201
1395.64469 7.61666
1396.34268 11.6865
1397.04103 40.0828
1397.73972 382.788
1398.43877 6852.59
1399.13816 75.7412
1399.83791 36.332
1400.538 6.0828
1401.23844 11.7005
1401.93924 20902.4
1402.64038 116.401
1403.34188 85.2218
1404.04373 39.8655
1404.74592 134.681
1405.44847 65.7441
1406.15137 2494.19
1406.85462 430.177
1407.55823 48.5914
1408.26218 102.617
1408.96649 19474.3
1409.67115 18.4081
1410.37616 12364.6
1411.08152 95.302
1411.78724 114.535
1412.49331 79.7155
1413.19973 37931.4
1413.90651 57.2271
1414.61364 27.1386
1415.32112 71.8075
1416.02896 28582.4
1416.73715 134.524
1417.4457 101.568
1418.1546 139.579
1418.86385 45306.8
1419.57346 2152.04
1420.28343 91.7926
1420.99375 119.637
1421.70442 146.202
1422.41545 1931.4
1423.12684 82.2097
1423.83858 72.493
1424.55068 192.719
1425.26313 130.523
1425.97594 120.69
1426.68911 3561.05
1427.40263 111.804
1428.11651 97.0925
1428.83074 106.638
1429.54534 7102.79
1430.26029 189.711
1430.9756 134.008
1431.69127 78.8128
1432.40729 74.7878
1433.12367 171.476
1433.84041 4368.67
1434.55751 12174.4
1435.27497 360.346
1435.99279 62515.5
1436.71096 2324.62
1437.4295 13728.7
1438.14839 223.814
1438.86765 816.548
1439.58726 2500.72
1440.30724 1740.5
1441.02757 178.822
1441.74826 145.957
1442.46932 1025.51
1443.19073 152.667
1443.91251 209.814
1444.63464 193.119
1445.35714 109.681
1446.08 189.196
1446.80322 7054.05
1447.52681 238.436
1448.25075 255.072
1448.97506 258.476
1449.69972 244.438
1450.42476 232.557
1451.15015 148.173
1451.87591 128398
1452.60203 1015.56
1453.32851 285.474
1454.05535 328.721
1454.78256 320.261
1455.51014 234.538
1456.23807 51872.7
1456.96637 330.301
1457.69504 310.192
1458.42407 375.29
1459.15346 379.758
1459.88322 356.109
1460.61335 110591
1461.34384 295.321
1462.07469 366.203
1462.80591 316.852
1463.5375 406.5
1464.26945 479.459
1465.00177 285.81
1465.73445 523.322
1466.4675 28549.9
1467.20092 346.541
1467.9347 399.55
1468.66885 351.579
1469.40337 215.191
1470.13826 71995.4
1470.87351 134.488
1471.60913 1140.04
1472.34512 191.14
1473.08148 305.613
1473.8182 13108.9
1474.55529 353.4
1475.29276 7350.2
1476.03059 244.04
1476.76879 255.705
1477.50736 17558.3
1478.24629 41245
1478.9856 321.388
1479.72528 37224.3
1480.46533 16255.4
1481.20575 342.87
1481.94653 212.961
1482.68769 337.16
1483.42922 86346.9
1484.17112 276.728
1484.91339 356.695
1485.65603 410.516
1486.39905 32136
1487.14243 462.32
1487.88619 504.85
1488.63032 120063
1489.37482 589.951
1490.11969 743.345
1490.86494 14229.8
1491.61056 704.277
1492.35655 848.491
1493.10292 41724.7
1493.84965 977.224
1494.59677 1002.5
1495.34425 1050.64
1496.09211 1081.48
1496.84034 1115.24
1497.58895 1214.37
1498.33793 1146.87
1499.08729 1230.13
1499.83702 1244.68
1500.58713 3070.13
1501.33761 1305.25
1502.08846 1268.8
1502.8397 4484.05
1503.5913 1237.51
1504.34329 1242.45
1505.09565 34349.4
1505.84838 305869
1506.60149 116749
1507.35498 1377.93
1508.10885 4961.51
1508.86309 18814.4
1509.61771 1453.51
1510.37271 2656.98
1511.12809 10280.7
1511.88384 1485.56
1512.63997 1450.24
1513.39648 1819.22
1514.15337 2046.74
1514.91063 3852.59
1515.66828 1546.65
1516.4263 1520.68
1517.1847 1540.64
1517.94349 1626.17
1518.70265 67230.7
1519.46219 1578.13
1520.22211 1602.13
1520.98241 1637.54
1521.74309 1591.99
1522.50415 1637.99
1523.2656 1554.33
1524.02742 224694
1524.78962 1476.81
1525.55221 1454.7
1526.31518 1432.95
1527.07852 1446.89
1527.84225 1388.97
1528.60637 81517.7
1529.37086 1323.54
1530.13574 1290.7
1530.901 1268.12
1531.66664 1231.04
1532.43266 1211.64
1533.19907 230410
1533.96586 1150.09
1534.73304 1116.69
1535.5006 1090.23
1536.26854 1066.89
1537.03686 1039.4
1537.80557 1019.43
1538.57467 1006.4
1539.34415 61906.9
1540.11401 1006.55
1540.88426 1078.97
1541.6549 874.954
1542.42592 852.602
1543.19732 148332
1543.96912 1355.12
1544.74129 777.331
1545.51386 767.907
1546.28681 5369.07
1547.06014 3243.27
1547.83387 776.476
1548.60798 725.291
1549.38248 714.225
1550.15736 17658.9
1550.93263 32191.9
1551.70829 9280.13
1552.48434 670.685
1553.26078 660.024
1554.0376 67937.3
1554.81482 47488
1555.59242 627.378
1556.37041 616.897
1557.14879 22627.5
1557.92756 594.842
1558.70672 583.364
1559.48626 93566.4
1560.2662 1244.91
1561.04653 550.433
1561.82725 539.616
1562.60836 1550.09
1563.38986 50671.9
1564.17175 506.081
1564.95403 495.728
1565.7367 140548
1566.51977 676.711
1567.30322 687.858
1568.08707 3004.44
1568.87131 1090.48
1569.65594 1207.32
1570.44096 38563.5
1571.22638 2843.36
1572.01219 1993.24
1572.79839 2281
1573.58499 6739.32
1574.37198 2804.7
1575.15936 3438.39
1575.94714 6094.88
1576.73531 5424.26
1577.52387 2354.85
1578.31283 9560.59
1579.10219 4187.42
1579.89193 1605.92
1580.68208 28706
1581.47262 1771.19
1582.26355 1059.99
1583.05488 335720
1583.84661 1782.8
1584.63873 118924
1585.43124 3219.36
1586.22416 4272.12
1587.01747 38182.9
1587.81118 518.339
1588.60528 3135.29
1589.39978 12836.6
1590.19468 1279.04
1590.98998 1106.74
1591.78567 2238.15
1592.58176 1715.29
1593.37825 3108.36
1594.17514 713.525
1594.97243 696.079
1595.77011 972.816
1596.5682 623.79
1597.36668 66888.2
1598.16556 872.622
1598.96485 537.615
1599.76453 542.921
1600.56461 545.207
1601.36509 571.669
1602.16598 619.653
1602.96726 220872
1603.76894 649.266
1604.57103 666.015
1605.37351 734.1
1606.1764 742.562
1606.97969 649.174
1607.78338 83515.5
1608.58747 665.344
1609.39197 675.896
1610.19687 691.918
1611.00217 722.162
1611.80787 727.094
1612.61397 234017
1613.42048 764.692
1614.22739 787.442
1615.03471 797.841
1615.84243 814.771
1616.65055 826.267
1617.45908 841.939
1618.26801 855.611
1619.07735 64454.1
1619.88709 890.278
1620.69724 907.792
1621.50779 920.432
1622.31874 928.311
1623.13011 78194.3
1623.94187 77736.3
1624.75405 1155.07
1625.56663 1090.51
1626.37961 987.931
1627.19301 2085.23
1628.00681 1636.97
1628.82101 993.931
1629.63563 975.448
1630.45065 5751.72
1631.26608 3531.28
1632.08192 35170.4
1632.89816 891.17
1633.71481 877.153
1634.53188 17374.1
1635.34935 74524.7
1636.16722 9115.16
1636.98551 801.607
1637.80421 765.351
1638.62332 44075.8
1639.44283 738.123
1640.26276 702.691
1641.0831 20545.7
1641.90384 679.372
1642.725 641.013
1643.54657 639.715
1644.36855 90276.6
1645.19094 7316.84
1646.01374 583.983
1646.83695 564.598
1647.66058 60883.4
1648.48461 509.659
1649.30906 503.649
1650.13392 99682.6
1650.95919 451.699
1651.78488 445.681
1652.61098 428.238
1653.43749 398.464
1654.26442 389.555
1655.09176 35810.3
1655.91951 349.161
1656.74768 326.153
1657.57626 310.514
1658.40525 4364.84
1659.23466 269.944
1660.06449 253.26
1660.89473 7710.28
1661.72538 255.466
1662.55645 255.429
1663.38794 258.304
1664.21984 259.885
1665.05216 256.486
1665.88489 238.818
1666.71804 256.588
1667.55161 263.088
1668.38559 265.022
1669.22 286244
1670.05481 8671.65
1670.89005 93816.4
1671.7257 270.42
1672.56178 3571.36
1673.39827 32806.8
1674.23517 272.164
1675.0725 1079.37
1675.91025 2253.12
1676.74841 9476.01
1677.587 276.242
1678.426 281.916
1679.26542 634.892
1680.10526 2543.66
1680.94553 282.654
1681.78621 287.185
1682.62731 293.916
1683.46884 301.825
1684.31078 47823
1685.15315 777.965
1685.99594 326.18
1686.83914 333.764
1687.68277 337.955
1688.52683 433.655
1689.3713 458.306
1690.2162 189337
1691.06152 643
1691.90726 381.021
1692.75342 390.35
1693.60001 396.83
1694.44703 404.885
1695.29446 72198.9
1696.14232 426.382
1696.9906 432.238
1697.83931 438.767
1698.68844 447.821
1699.538 453.737
1700.38798 462.422
1701.23839 199620
1702.08922 479.42
1702.94048 485.202
1703.79216 494.582
1704.64427 494.46
1705.4968 510.238
1706.34977 482.911
1707.20315 513.935
1708.05697 56457
1708.91121 461.862
1709.76588 469.938
1710.62098 464.15
1711.4765 463.169
1712.33245 139271
1713.18883 454.443
1714.04564 441.724
1714.90288 443.802
1715.76054 438.041
1716.61864 441.511
1717.47716 471.043
1718.33612 450.722
1719.1955 690.81
1720.05531 483.546
1720.91556 32971.7
1721.77623 712.796
1722.63733 709.288
1723.49887 399.242
1724.36083 14339.9
1725.22323 58548.5
1726.08605 2761.53
1726.94931 387.918
1727.813 385.242
1728.67713 14681.6
1729.54168 377.561
1730.40667 7525.44
1731.27209 368.552
1732.13794 351.73
1733.00422 36026.2
1733.87094 357.35
1734.7381 13615.6
1735.60568 16483.7
1736.4737 338.288
1737.34216 341.316
1738.21104 26904.2
1739.08037 65947
1739.95012 326.141
1740.82032 324.048
1741.69094 318.037
1742.56201 27051.6
1743.43351 312.857
1744.30544 307.797
1745.17781 77225.1
1746.05062 299.909
1746.92386 300.035
1747.79754 290.711
1748.67166 286.132
1749.54622 281.299
1750.42121 32000.3
1751.29664 279.155
1752.1725 267.428
1753.04881 8019.59
1753.92555 257.612
1754.80273 263.929
1755.68036 249.375
1756.55842 251.054
1757.43691 251.613
1758.31585 234.069
1759.19523 229.064
1760.07505 224.487
1760.9553 230.16
1761.836 215.384
1762.71714 227.167
1763.59872 206.839
1764.48074 201.151
1765.3632 214913
1766.2461 7355.79
1767.12945 67408.5
1768.01323 1090.72
1768.89746 3654.76
1769.78213 24358.9
1770.66724 189.218
1771.5528 164.554
1772.4388 1112.04
1773.32524 7857.7
1774.21212 195.465
1775.09945 152.945
1775.98722 203.768
1776.87544 451.772
1777.7641 2141.34
1778.6532 232.989
1779.54275 164.322
1780.43274 144.647
1781.32318 21375.4
1782.21407 228.495
1783.1054 781.735
1783.99717 176.695
1784.88939 419.783
1785.78206 397.665
1786.67518 188.775
1787.56874 69066.9
1788.46274 72949.1
1789.3572 217.779
1790.2521 187.222
1791.14745 247.92
1792.04325 224.149
1792.93949 220.687
1793.83619 498.267
1794.73333 170.511
1795.63092 291.016
1796.52896 298.215
1797.42745 237.805
1798.32639 237.852
1799.22578 151694
1800.12562 549.569
1801.0259 533.508
1801.92664 467.73
1802.82783 403.838
1803.72947 403.947
1804.63156 226.129
1805.5341 399.338
1806.43709 32514.7
1807.34054 499.808
1808.24443 265.305
1809.14878 378.537
1810.05358 343.598
1810.95884 801.594
1811.86454 82750.5
1812.7707 776.339
1813.67731 381.313
1814.58438 352.165
1815.4919 867.965
1816.39987 551.255
1817.3083 543.756
1818.21718 592.998
1819.12651 516.686
1820.0363 946.716
1820.94655 9610.71
1821.85725 1130.34
1822.76841 803.463
1823.68002 272.998
1824.59209 455.139
1825.50461 24455.9
1826.41759 1317.88
1827.33103 608.726
1828.24492 969.47
1829.15927 1321.98
1830.07408 1097.19
1830.98935 1199.51
1831.90507 790.083
1832.82125 1456.7
1833.73789 732.201
1834.65499 1237.61
1835.57255 1384.46
1836.49056 1514.82
1837.40904 1444.77
1838.32797 1418.78
1839.24737 1060.86
1840.16722 1720.57
1841.08754 1233.71
1842.00831 1768.08
1842.92954 5188.9
1843.85124 1274.34
1844.77339 652.362
1845.69601 15235.9
1846.61909 1689.61
1847.54263 1806.46
1848.46663 1907.95
1849.3911 1302.82
1850.31602 1669.94
1851.24141 1151.94
1852.16727 10746.8
1853.09358 1908.45
1854.02036 1962.85
1854.9476 1350.49
1855.87531 2194.31
1856.80348 2001.59
1857.73211 1528.41
1858.66121 7486.78
1859.59077 2018.82
1860.5208 2142.1
1861.45129 1242.27
1862.38225 1101.71
1863.31368 1252.95
1864.24557 1925.3
1865.17792 1594.56
1866.11074 860.062
1867.04403 1742.17
1867.97779 2480.45
1868.91201 1826.93
1869.8467 2361.46
1870.78186 2449.45
1871.71748 2348.83
1872.65357 2148.91
1873.59014 2634
1874.52716 17028.5
1875.46466 2868.57
1876.40263 3787.71
1877.34107 2460.4
1878.27997 2340.76
1879.21935 8597.52
1880.15919 1266.82
1881.0995 2050.99
1882.04029 1371.18
1882.98154 1578.08
1883.92327 2937
1884.86547 1638.28
1885.80814 1614.93
1886.75128 2052.9
1887.69489 1021.03
1888.63897 2005.15
1889.58353 1882.5
1890.52855 2680.42
1891.47406 5562.19
1892.42003 2624.06
1893.36648 2271.51
1894.3134 2086.5
1895.26079 1137
1896.20866 1510.62
1897.157 1443.35
1898.10581 2665.75
1899.0551 3135.03
1900.00487 3398
1900.95511 2856.71
1901.90582 1830.96
1902.85701 3440.85
1903.80868 2129.35
1904.76082 6592.31
1905.71344 3775.76
1906.66654 3617.96
1907.62011 1919.79
1908.57416 2111.19
1909.52868 1817.31
1910.48369 2579.65
1911.43917 3476.86
1912.39513 2693.99
1913.35156 3644.97
1914.30848 3496.13
1915.26587 2128.97
1916.22374 3557.46
1917.18209 2444.91
1918.14092 898.833
1919.10024 10029.1
1920.06003 4276.63
1921.0203 4162.58
1921.98105 1897.54
1922.94228 1101.8
1923.90399 3569.38
1924.86618 55789.8
1925.82885 1355.7
1926.79201 3058.89
1927.75565 2629.17
1928.71977 3612.86
1929.68437 1434.82
1930.64945 3606.72
1931.61502 3277.33
1932.58106 1810.38
1933.5476 1886.94
1934.51461 11334.7
1935.48211 10179
1936.45009 2947.99
1937.41856 1477.63
1938.38751 2561.16
1939.35695 4326.06
1940.32687 3266.78
1941.29728 3285.22
1942.26817 927.911
1943.23954 1447.45
1944.21141 2134.61
1945.18376 2635.6
1946.15659 1428.29
1947.12991 2057.15
1948.10372 2213.3
1949.07802 1838.22
1950.0528 1498.33
1951.02807 1371.92
1952.00383 8163.58
1952.98007 3368.64
1953.95681 2304.38
1954.93403 1836.37
1955.91174 12580.8
1956.88994 3284.57
1957.86863 2391.46
1958.84781 4956.66
1959.82748 3610.33
1960.80764 1743.04
1961.78829 5107.71
1962.76943 1784.37
1963.75106 10654.9
1964.73318 9539.39
1965.71579 2026.22
1966.69889 866.051
1967.68249 8495.66
1968.66658 820.735
1969.65116 4314.03
1970.63623 22237.3
1971.62179 1694.08
1972.60785 1073.84
1973.5944 6057.75
1974.58144 1051.32
1975.56898 13526
1976.55701 366.806
1977.54554 36354.1
1978.53456 227.475
1979.52407 1629.94
1980.51408 1298.27
1981.50459 146.75
1982.49559 296.47
1983.48708 12138.3
1984.47907 1111.72
1985.47156 464.694
1986.46455 611.3
1987.45803 1132.41
1988.452 138.478
1989.44648 1376.71
1990.44145 1461.38
1991.43692 80.4903
1992.43289 1867.49
1993.42935 88.2312
1994.42632 834.002
1995.42378 557.074
1996.42174 885.965
1997.4202 1054.34
1998.41916 2084.25
1999.41862 2696.26
2000.41858 71541.2
2001.41904 3502.77
2002.42 4483.15
2003.42146 23965.7
2004.42342 4384.39
2005.42588 5097.79
2006.42885 8776.51
2007.43231 2673.18
2008.43628 2181.33
2009.44075 1776.99
2010.44572 3797.45
2011.45119 3700.01
2012.45717 4241.3
2013.46365 3285.67
2014.47063 3134.41
2015.47812 4243.1
2016.48611 3295.14
2017.49461 3629.11
2018.50361 3859.71
2019.51311 12156.3
2020.52312 2289.9
2021.53364 1914.27
2022.54465 1915.1
2023.55618 1975.95
2024.56821 1403.58
2025.58075 895.152
2026.59379 692.797
2027.60734 57292
2028.6214 919.897
2029.63596 345.805
2030.65104 435.911
2031.66661 297.43
2032.6827 353.393
2033.6993 27454.2
2034.7164 240.159
2035.73401 149.683
2036.75214 133.156
2037.77077 152.581
2038.78991 244.476
2039.80956 499.239
2040.82972 77465.6
2041.85039 231.97
2042.87157 269.272
2043.89326 368.494
2044.91546 263.621
2045.93817 300.548
2046.9614 486.254
2047.98513 730.509
2049.00938 1139.06
2050.03414 15367.3
2051.05942 1907.49
2052.0852 1761.93
2053.1115 2449.39
2054.13832 2934
2055.16564 3023.79
2056.19348 52061.4
2057.22183 2760.69
2058.2507 2109.63
2059.28009 892.502
2060.30998 485.97
2061.3404 1415.47
2062.37132 1369
2063.40277 2684.4
2064.43473 1714.74
2065.4672 3055.1
2066.50019 1889.36
2067.5337 3087.51
2068.56773 2094.95
2069.60227 1624.29
2070.63733 2400.71
2071.67291 1370.81
2072.709 34625.1
2073.74562 1425.9
2074.78275 1079.64
2075.8204 721.589
2076.85857 685.218
2077.89726 932.082
2078.93647 296.607
2079.97619 205.527
2081.01644 241.336
2082.05721 366.216
2083.0985 423.192
2084.14031 417.488
2085.18264 668.195
2086.22549 7617.5
2087.26887 367.761
2088.31276 365.842
2089.35718 249.883
2090.40212 7903.15
2091.44758 7901.8
2092.49357 213.504
2093.54007 438.167
2094.58711 187.891
2095.63466 122.688
2096.68274 104.083
2097.73134 97.3602
2098.78047 576.434
2099.83013 120.429
2100.8803 941.388
2101.93101 652.847
2102.98223 2506.13
2104.03399 71.5793
2105.08627 1234.08
2106.13907 2984.78
2107.19241 5862.07
2108.24627 69.2351
2109.30065 2924.35
2110.35557 5555.56
2111.41101 13078
2112.46698 163.533
2113.52348 42.2689
2114.5805 47.6243
2115.63806 5780
2116.69614 93.0873
2117.75475 21320.1
2118.8139 520.542
2119.87357 241.379
2120.93377 83.7134
2121.9945 37.2928
2123.05576 8608.63
2124.11756 261.215
2125.17988 23262.5
2126.24274 19.2431
2127.30612 899.216
2128.37004 542.158
2129.43449 15.0612
2130.49948 20.9063
2131.56499 1634.96
2132.63104 8311.27
2133.69762 11.0326
2134.76474 6.9782
2135.83239 174.899
2136.90057 21.6559
2137.96929 23.505
2139.03854 29.7042
2140.10833 31.1183
2141.17865 8.37456
2142.24951 25.4883
2143.3209 33.267
2144.39283 30.185
2145.46529 27.6699
2146.53829 28.6677
2147.61183 89.7819
2148.68591 76.3461
2149.76052 155.521
2150.83567 64649.3
2151.91135 519.218
2152.98758 2286.48
2154.06434 23680.5
2155.14164 344.461
2156.21948 89.873
2157.29786 880.827
2158.37678 9099.21
2159.45624 377.504
2160.53624 213.065
2161.61678 151.672
2162.69785 516.919
2163.77947 4325
2164.86163 50.4402
2165.94433 102.943
2167.02758 240.293
2168.11136 231.182
2169.19569 710.424
2170.28056 800.039
2171.36597 13192.3
2172.45192 258.839
2173.53842 232.802
2174.62546 488.477
2175.71305 282.819
2176.80118 348.025
2177.88985 161.118
2178.97907 848.766
2180.06883 44123.5
2181.15913 21.3979
2182.24999 81.3015
2183.34138 1319.64
2184.43333 1559.07
2185.52582 410.641
2186.61885 282.835
2187.71244 18567.3
2188.80657 194.779
2189.90124 166.987
2190.99647 432.039
2192.09224 15.8558
2193.18856 21.6834
2194.28543 541.019
2195.38285 53266.6
2196.48081 357.34
2197.57933 197.157
2198.67839 1846.73
2199.77801 1509.48
2200.87817 884.485
2201.97888 777.199
2203.08015 468.553
2204.18196 628.55
2205.28433 17476.1
2206.38725 438.854
2207.49072 342.675
2208.59474 51.2106
2209.69931 71.01
2210.80444 332.676
2211.91012 43.7376
2213.01635 41561.7
2214.12313 112.425
2215.23047 472.745
2216.33836 1297.34
2217.44681 89.8486
2218.55581 201.925
2219.66537 172.709
2220.77548 171.307
2221.88614 618.827
2222.99736 207.603
2224.10914 174.151
2225.22147 11231.8
2226.33436 538.368
2227.44781 505.975
2228.56181 213.222
2229.67637 103.619
2230.79149 12599.4
2231.90716 13348
2233.02339 334.166
2234.14018 585.573
2235.25753 321.356
2236.37544 824.352
2237.49391 676.46
2238.61294 290.105
2239.73252 431.06
2240.85267 699.107
2241.97337 639.658
2243.09464 470.438
2244.21647 1150.08
2245.33886 247.975
2246.46181 6425.11
2247.58532 1451.6
2248.70939 361.668
2249.83403 659.033
2250.95923 838.954
2252.08499 12412.1
2253.21131 854.454
2254.3382 1323.96
2255.46565 1195.46
2256.59367 1762.93
2257.72224 816.485
2258.85139 632.524
2259.9811 864.852
2261.11137 1757.17
2262.24221 2540.97
2263.37361 1229.92
2264.50558 2029.74
2265.63812 499.762
2266.77122 387.913
2267.90489 1749.34
2269.03912 4702.42
2270.17393 1528.09
2271.3093 596.65
2272.44524 2060.69
2273.58174 2979.02
2274.71882 3137.59
2275.85646 3932.72
2276.99468 2317.21
2278.13346 654.99
2279.27281 369.325
2280.41273 2635.2
2281.55322 688.333
2282.69428 3495.32
2283.83592 2581.79
2284.97812 1901.61
2286.12089 694.468
2287.26424 1046.53
2288.40816 646.441
2289.55265 4281.33
2290.69771 1824.89
2291.84335 2436.07
2292.98955 1800.76
2294.13634 2928.12
2295.28369 5307.46
2296.43162 2352.74
2297.58012 798.8
2298.7292 5466.65
2299.87885 3381.59
2301.02908 2484.35
2302.17988 1876.51
2303.33126 2931.6
2304.48321 3323.6
2305.63574 1769.69
2306.78885 1498.22
2307.94253 3042.77
2309.09679 1281.8
2310.25163 846.879
2311.40704 442.042
2312.56304 739.405
2313.71961 97.9082
2314.87676 387.156
2316.03448 4307.27
2317.19279 12082.4
2318.35168 7528.28
2319.51114 3768.77
2320.67119 2974.13
2321.83181 6718.89
2322.99302 6827.5
2324.15481 2030.9
2325.31717 2574.79
2326.48012 1428.4
2327.64365 726.123
2328.80777 5017.43
2329.97246 860.841
2331.13774 3528.46
2332.3036 2947.25
2333.47004 1840.9
2334.63707 3913.08
2335.80468 2835.63
2336.97287 1618.35
2338.14165 4083.18
2339.31102 5562.77
2340.48096 10408.6
2341.6515 12848.6
2342.82262 3291.84
2343.99432 3913.24
2345.16661 8440.62
2346.33949 5446.27
2347.51295 7031.9
2348.687 6146.43
2349.86164 11438.4
2351.03686 12027.8
2352.21267 29652.2
2353.38907 7295.93
2354.56606 3444.07
2355.74364 9932.95
2356.92181 5412.31
2358.10056 9862.11
2359.27991 7797.69
2360.45984 1336.04
2361.64037 5267.17
2362.82148 2429.91
2364.00319 12404.5
2365.18549 1646.95
2366.36837 3301.77
2367.55185 16033.8
2368.73593 13103.8
2369.92059 14747.1
2371.10585 46499.9
2372.2917 14447.4
2373.47814 7294.35
2374.66518 4123.89
2375.8528 9218.62
2377.04103 18382.6
2378.22985 37116.3
2379.41926 8146.13
2380.60927 10925.1
2381.79987 2717.81
2382.99107 27575.1
2384.18286 41945.4
2385.37525 14039.9
2386.56823 22746.8
2387.76182 36732.3
2388.956 4393.81
2390.15077 6969.07
2391.34615 52844.8
2392.54212 5272.02
2393.73869 6779.75
2394.93586 10589.2
2396.13362 18560.7
2397.33199 35087.1
2398.53096 6268.09
2399.73052 7188.22
2400.93069 14561
2402.13145 6488.61
2403.33282 6086.73
2404.53479 58034
2405.73735 15074.9
2406.94052 44614.3
2408.14429 30696.4
2409.34867 33347.2
2410.55364 16391
2411.75922 32275
2412.9654 5077.9
2414.17219 60181.9
2415.37958 52208.1
2416.58757 84860.2
2417.79616 16477.2
2419.00536 178108
2420.21517 14273
2421.42558 9212.82
2422.63659 16369.8
2423.84822 47192.1
2425.06044 12639.1
2426.27328 52536
2427.48672 6260.82
2428.70076 4668.81
2429.91542 6710.9
2431.13068 4430.95
2432.34655 10239.2
2433.56302 57807.3
2434.78011 110840
2435.9978 236533
2437.21611 36327
2438.43502 7030.49
2439.65454 4831.07
2440.87468 4393.68
2442.09542 7180.83
2443.31677 35184
2444.53873 12133.9
2445.76131 174927
2446.9845 115949
2448.20829 59534.3
2449.4327 26879.8
2450.65773 187568
2451.88336 140871
2453.10961 25143.2
2454.33647 148276
2455.56395 15412.7
2456.79204 12552.6
2458.02074 7410.7
2459.25006 13664.1
2460.47999 7895.54
2461.71054 28229.9
2462.9417 214407
2464.17348 56640.5
2465.40587 11246.7
2466.63889 17747.4
2467.87251 93909.4
2469.10676 29627.7
2470.34162 24797.4
2471.5771 162086
2472.8132 378568
2474.04991 36630.6
2475.28725 61735.7
2476.5252 15678.5
2477.76377 53289.4
2479.00296 85407.3
2480.24278 197011
2481.48321 199443
2482.72426 60070.6
2483.96593 334047
2485.20822 88613.7
2486.45114 140083
2487.69468 318678
2488.93883 233727
2490.18361 124551
2491.42902 175816
2492.67504 216185
2493.92169 231437
2495.16897 411704
2496.41686 142057
2497.66538 145640
2498.91453 99111.3
