# Obtained using Skycalc tool from ESO webpage
# Not including telescope emissivity
Wave[nm] Radiance[photons/s/m**2/micron/arsec**2]
2100 41.9726
2100.03264 59.2986
2100.06528 93.518
2100.09791 172.555
2100.13055 237.352
2100.16319 200.446
2100.19583 136.681
2100.22847 127.638
2100.26111 165.743
2100.29375 257.269
2100.3264 479.178
2100.35904 813.528
2100.39168 925.964
2100.42432 675.877
2100.45697 407.202
2100.48961 367.025
2100.52226 1230.99
2100.5549 2274.63
2100.58755 1175.35
2100.6202 230.323
2100.65284 94.0779
2100.68549 66.5065
2100.71814 43.0106
2100.75079 31.9966
2100.78344 33.2175
2100.81609 42.4782
2100.84874 49.7625
2100.88139 53.2736
2100.91404 65.3354
2100.94669 76.3418
2100.97934 78.8993
2101.01199 75.8978
2101.04465 103.675
2101.0773 158.085
2101.10995 164.437
2101.14261 391.147
2101.17526 2634.75
2101.20792 6949.1
2101.24058 7005.18
2101.27323 2793.5
2101.30589 703.868
2101.33855 439.911
2101.3712 266.66
2101.40386 432.624
2101.43652 762.305
2101.46918 538.318
2101.50184 576.444
2101.5345 866.594
2101.56716 757.289
2101.59983 880.575
2101.63249 1130.64
2101.66515 1142.1
2101.69781 1472.2
2101.73048 2476.18
2101.76314 3159.2
2101.79581 2372.42
2101.82847 1199.32
2101.86114 610.955
2101.8938 430.494
2101.92647 317.545
2101.95914 272.193
2101.99181 172.174
2102.02447 108.229
2102.05714 112.949
2102.08981 130.081
2102.12248 124.815
2102.15515 106.836
2102.18782 85.6741
2102.22049 73.4373
2102.25317 70.619
2102.28584 63.0019
2102.31851 60.7977
2102.35118 85.4862
2102.38386 139.699
2102.41653 170.174
2102.44921 147.71
2102.48188 113.045
2102.51456 230.032
2102.54724 1343.5
2102.57991 2702.37
2102.61259 1972.6
2102.64527 2034.15
2102.67795 2076.08
2102.71063 840.853
2102.7433 121.141
2102.77598 37.8419
2102.80867 52.6834
2102.84135 64.0522
2102.87403 51.0376
2102.90671 33.673
2102.93939 29.5207
2102.97208 40.2867
2103.00476 66.3267
2103.03744 114.138
2103.07013 151.991
2103.10281 120.109
2103.1355 72.8367
2103.16818 58.0673
2103.20087 95.1803
2103.23356 1082.66
2103.26625 8956.28
2103.29893 23669.3
2103.33162 23665.5
2103.36431 9299.12
2103.397 1318.8
2103.42969 106.653
2103.46238 38.0204
2103.49507 36.1728
2103.52776 56.6436
2103.56046 92.2218
2103.59315 105.286
2103.62584 100.072
2103.65854 79.2422
2103.69123 88.471
2103.72392 116.222
2103.75662 108.099
2103.78932 72.37
2103.82201 49.578
2103.85471 45.8005
2103.88741 60.7637
2103.9201 89.7991
2103.9528 112.208
2103.9855 118.352
2104.0182 81.9201
2104.0509 51.047
2104.0836 35.3243
2104.1163 26.1652
2104.149 26.9113
2104.1817 30.6235
2104.21441 29.6594
2104.24711 34.4974
2104.27981 49.9875
2104.31252 74.2204
2104.34522 102.598
2104.37793 120.395
2104.41063 118.043
2104.44334 92.1132
2104.47604 60.9484
2104.50875 37.6221
2104.54146 28.8304
2104.57417 34.976
2104.60687 45.2407
2104.63958 44.2074
2104.67229 44.2684
2104.705 61.9469
2104.73771 86.9773
2104.77042 91.0093
2104.80313 71.7187
2104.83585 64.914
2104.86856 92.8999
2104.90127 181.042
2104.93399 326.72
2104.9667 396.86
2104.99941 293.185
2105.03213 170.868
2105.06484 134.263
2105.09756 145.191
2105.13028 132.694
2105.16299 90.3196
2105.19571 73.8794
2105.22843 538.504
2105.26115 3988.78
2105.29387 8298.84
2105.32659 6087.91
2105.35931 6201.41
2105.39203 7391.56
2105.42475 3353.02
2105.45747 611.061
2105.49019 240.469
2105.52292 183.792
2105.55564 122.934
2105.58836 77.6058
2105.62109 66.0919
2105.65381 67.0293
2105.68654 49.7593
2105.71926 34.5842
2105.75199 34.8023
2105.78472 45.513
2105.81744 63.5129
2105.85017 75.8635
2105.8829 70.0053
2105.91563 64.3076
2105.94836 50.9675
2105.98109 44.5612
2106.01382 60.5338
2106.04655 114.654
2106.07928 1428.16
2106.11201 11041.3
2106.14474 22045.7
2106.17748 11080.8
2106.21021 2787.91
2106.24294 11033.1
2106.27568 21911.7
2106.30841 10991.6
2106.34115 1433.84
2106.37388 102.026
2106.40662 61.7878
2106.43936 87.4631
2106.47209 113.37
2106.50483 135.14
2106.53757 211.767
2106.57031 287.101
2106.60305 238.554
2106.63579 156.035
2106.66853 219.944
2106.70127 2947.53
2106.73401 24329.9
2106.76675 62121.6
2106.7995 61256.7
2106.83224 28830.9
2106.86498 6627.58
2106.89773 693.867
2106.93047 95.8371
2106.96322 50.6359
2106.99596 34.0621
2107.02871 29.9926
2107.06145 40.2963
2107.0942 73.6372
2107.12695 106.506
2107.1597 90.5893
2107.19245 51.463
2107.22519 31.6739
2107.25794 28.4228
2107.29069 32.2179
2107.32345 49.7012
2107.3562 83.9175
2107.38895 97.7093
2107.4217 71.8993
2107.45445 63.7629
2107.48721 90.6804
2107.51996 108.81
2107.55271 92.6461
2107.58547 90.304
2107.61822 99.7204
2107.65098 74.0334
2107.68374 42.8883
2107.71649 30.6198
2107.74925 27.3405
2107.78201 30.984
2107.81477 48.8123
2107.84752 86.5109
2107.88028 111.941
2107.91304 92.7927
2107.9458 58.8475
2107.97856 36.8934
2108.01133 30.1345
2108.04409 35.7597
2108.07685 60.1906
2108.10961 98.7567
2108.14238 110.863
2108.17514 101.383
2108.2079 110.127
2108.24067 105.234
2108.27344 82.7028
2108.3062 82.6608
2108.33897 102.134
2108.37173 117.892
2108.4045 103.148
2108.43727 62.8008
2108.47004 35.4883
2108.50281 26.8067
2108.53558 25.8209
2108.56835 30.2069
2108.60112 48.4094
2108.63389 83.4004
2108.66666 98.9064
2108.69943 75.7826
2108.7322 55.7299
2108.76498 43.5627
2108.79775 35.7965
2108.83052 39.6902
2108.8633 68.2416
2108.89607 140.049
2108.92885 200.585
2108.96163 154.199
2108.9944 78.2485
2109.02718 42.7291
2109.05996 35.3752
2109.09274 40.2775
2109.12551 53.1749
2109.15829 72.4789
2109.19107 98.6596
2109.22385 99.2144
2109.25663 62.2184
2109.28942 33.9377
2109.3222 26.9876
2109.35498 28.291
2109.38776 30.9432
2109.42054 38.085
2109.45333 63.9901
2109.48611 100.517
2109.5189 137.53
2109.55168 1121.46
2109.58447 8611.07
2109.61726 20227.6
2109.65004 23894
2109.68283 25071.3
2109.71562 11216.9
2109.74841 1533.68
2109.78119 333.531
2109.81398 496.934
2109.84677 760.523
2109.87956 794.707
2109.91235 520.8
2109.94515 268.993
2109.97794 149.163
2110.01073 100.393
2110.04352 97.7057
2110.07632 114.369
2110.10911 102.239
2110.1419 64.5093
2110.1747 39.933
2110.2075 33.3834
2110.24029 34.5954
2110.27309 42.5353
2110.30588 73.0168
2110.33868 229.337
2110.37148 2828.58
2110.40428 21002.4
2110.43708 41698.9
2110.46988 20844.7
2110.50268 2632.06
2110.53548 111.707
2110.56828 38.9174
2110.60108 128.071
2110.63388 2560.31
2110.66669 20089.5
2110.69949 40176.9
2110.73229 20232.7
2110.7651 2632.49
2110.7979 129.655
2110.83071 30.1944
2110.86351 22.6621
2110.89632 21.5311
2110.92912 25.2053
2110.96193 39.7582
2110.99474 72.5036
2111.02755 114.253
2111.06036 155.769
2111.09317 181.235
2111.12598 130.235
2111.15879 66.9733
2111.1916 43.2052
2111.22441 41.4183
2111.25722 41.3842
2111.29003 46.3643
2111.32284 65.1259
2111.35566 77.9352
2111.38847 64.1229
2111.42129 52.7034
2111.4541 230.417
2111.48692 5892.75
2111.51973 47297.1
2111.55255 102402
2111.58537 99944
2111.61818 102955
2111.651 47666.4
2111.68382 6083.48
2111.71664 469.876
2111.74946 513.898
2111.78228 1032.38
2111.8151 1642.51
2111.84792 1646.38
2111.88074 1040.27
2111.91356 512.308
2111.94638 273.223
2111.97921 193.463
2112.01203 175.986
2112.04485 159.145
2112.07768 123.722
2112.1105 88.5658
2112.14333 68.4199
2112.17616 58.8196
2112.20898 50.2451
2112.24181 42.2249
2112.27464 40.8573
2112.30747 50.2524
2112.34029 68.9967
2112.37312 84.0933
2112.40595 96.0375
2112.43878 144.944
2112.47161 302.996
2112.50444 604.752
2112.53728 809.634
2112.57011 627.373
2112.60294 317.534
2112.63577 146.225
2112.66861 91.0815
2112.70144 79.4015
2112.73428 81.1398
2112.76711 114.811
2112.79995 160.256
2112.83278 132.748
2112.86562 75.3591
2112.89846 45.4679
2112.9313 36.0948
2112.96413 32.8679
2112.99697 27.8353
2113.02981 27.0352
2113.06265 29.3874
2113.09549 25.1571
2113.12833 19.353
2113.16117 19.32
2113.19402 25.4295
2113.22686 40.1568
2113.2597 81.9096
2113.29255 140.832
2113.32539 140.087
2113.35823 81.5248
2113.39108 41.8503
2113.42392 32.7403
2113.45677 32.8176
2113.48962 40.5512
2113.52246 54.6301
2113.55531 54.6254
2113.58816 41.2042
2113.62101 28.7747
2113.65386 17.925
2113.68671 11.9809
2113.71956 11.2953
2113.75241 12.3195
2113.78526 14.5865
2113.81811 20.5737
2113.85096 27.7661
2113.88381 30.0886
2113.91667 26.73
2113.94952 26.9093
2113.98237 41.1596
2114.01523 86.6137
2114.04808 139.693
2114.08094 121.641
2114.1138 67.0526
2114.14665 36.8844
2114.17951 26.9473
2114.21237 21.0654
2114.24523 16.9039
2114.27809 16.9796
2114.31094 19.3125
2114.3438 19.7999
2114.37666 15.7947
2114.40953 12.6694
2114.44239 11.6993
2114.47525 13.1859
2114.50811 19.3688
2114.54097 25.8929
2114.57384 24.4371
2114.6067 20.1466
2114.63956 21.3721
2114.67243 29.7709
2114.70529 46.8768
2114.73816 76.5847
2114.77103 127.569
2114.80389 158.88
2114.83676 119.847
2114.86963 63.9556
2114.9025 43.7661
2114.93537 44.0953
2114.96824 39.306
2115.00111 35.0222
2115.03398 40.5743
2115.06685 59.4533
2115.09972 105.707
2115.13259 189.062
2115.16546 232.102
2115.19834 160.913
2115.23121 80.8906
2115.26408 51.8916
2115.29696 56.0779
2115.32983 65.7378
2115.36271 56.5862
2115.39559 39.2291
2115.42846 29.931
2115.46134 31.5386
2115.49422 126.493
2115.5271 2841.09
2115.55997 24243
2115.59285 64527.2
2115.62573 64666
2115.65861 24407.6
2115.69149 2960.88
2115.72437 260.939
2115.75726 129.196
2115.79014 70.7807
2115.82302 40.6177
2115.8559 30.3674
2115.88879 28.0625
2115.92167 29.7105
2115.95456 31.1038
2115.98744 33.9921
2116.02033 39.4357
2116.05321 49.8128
2116.0861 78.535
2116.11899 135.275
2116.15188 227.402
2116.18477 368.328
2116.21765 457.549
2116.25054 356.224
2116.28343 215.333
2116.31632 166.192
2116.34921 146.694
2116.38211 91.7837
2116.415 48.7548
2116.44789 37.064
2116.48078 46.0741
2116.51368 70.1213
2116.54657 85.1971
2116.57947 66.2561
2116.61236 40.7212
2116.64526 28.8009
2116.67815 22.6541
2116.71105 16.3114
2116.74395 12.0603
2116.77684 10.732
2116.80974 11.9413
2116.84264 16.2513
2116.87554 24.4981
2116.90844 40.2034
2116.94134 65.6669
2116.97424 78.6033
2117.00714 59.7041
2117.04004 45.0526
2117.07294 64.0064
2117.10585 94.1599
2117.13875 81.3386
2117.17165 47.9484
2117.20456 29.3793
2117.23746 26.1838
2117.27037 29.2581
2117.30327 40.0907
2117.33618 63.1877
2117.36909 91.0875
2117.40199 94.1079
2117.4349 60.8572
2117.46781 32.4933
2117.50072 27.2167
2117.53363 342.352
2117.56654 10378.1
2117.59945 90360.2
2117.63236 240907
2117.66527 240904
2117.69818 90377.8
2117.73109 10420.3
2117.76401 404.489
2117.79692 114.231
2117.82983 126.574
2117.86275 124.908
2117.89566 117.497
2117.92858 83.5055
2117.9615 57.0297
2117.99441 49.7607
2118.02733 49.6276
2118.06025 55.0999
2118.09316 68.0554
2118.12608 84.5351
2118.159 80.644
2118.19192 78.7248
2118.22484 105.241
2118.25776 139.542
2118.29068 137.827
2118.3236 126.981
2118.35653 142.621
2118.38945 192.639
2118.42237 287.227
2118.4553 472.206
2118.48822 914.907
2118.52115 1928.4
2118.55407 3234.84
2118.587 3414.2
2118.61992 2218.46
2118.65285 1130.29
2118.68578 644.092
2118.7187 410.803
2118.75163 253.279
2118.78456 162.117
2118.81749 117.274
2118.85042 91.9906
2118.88335 74.8053
2118.91628 60.9498
2118.94921 51.0206
2118.98214 45.5402
2119.01508 43.2673
2119.04801 45.7286
2119.08094 55.264
2119.11388 80.1146
2119.14681 113.56
2119.17975 112.693
2119.21268 82.4084
2119.24562 53.291
2119.27855 40.3853
2119.31149 39.9789
2119.34443 39.3148
2119.37737 36.9698
2119.4103 43.374
2119.44324 62.604
2119.47618 76.0074
2119.50912 65.4438
2119.54206 64.5907
2119.575 97.9459
2119.60795 139.52
2119.64089 144.068
2119.67383 158.256
2119.70677 261.639
2119.73972 485.086
2119.77266 666.223
2119.80561 560.049
2119.83855 317.765
2119.8715 163.586
2119.90444 103.626
2119.93739 88.4315
2119.97034 102.322
2120.00328 157.219
2120.03623 298.755
2120.06918 498.281
2120.10213 528.812
2120.13508 342.12
2120.16803 184.551
2120.20098 144.109
2120.23393 157.977
2120.26688 165.985
2120.29984 206.766
2120.33279 364.55
2120.36574 581.866
2120.3987 583.23
2120.43165 355.974
2120.46461 176.723
2120.49756 123.074
2120.53052 128.009
2120.56347 114.673
2120.59643 71.9334
2120.62939 43.1443
2120.66235 34.7619
2120.6953 32.1505
2120.72826 27.1026
2120.76122 21.6027
2120.79418 18.3829
2120.82714 15.9423
2120.8601 15.291
2120.89307 17.2045
2120.92603 22.3726
2120.95899 39.2965
2120.99195 78.7476
2121.02492 113.797
2121.05788 100.935
2121.09085 67.8361
2121.12381 40.8945
2121.15678 30.6558
2121.18974 30.5063
2121.22271 30.9883
2121.25568 38.1884
2121.28864 65.7808
2121.32161 130.305
2121.35458 202.113
2121.38755 195.922
2121.42052 129.466
2121.45349 95.7067
2121.48646 105.72
2121.51943 99.2025
2121.5524 60.4069
2121.58538 32.4766
2121.61835 23.7319
2121.65132 21.992
2121.6843 19.8287
2121.71727 17.0565
2121.75025 14.6406
2121.78322 12.7734
2121.8162 14.0315
2121.84917 22.3943
2121.88215 34.4179
2121.91513 40.9995
2121.94811 59.8562
2121.98108 89.7898
2122.01406 82.3438
2122.04704 46.8528
2122.08002 23.7707
2122.113 16.3145
2122.14598 14.339
2122.17897 11.8241
2122.21195 9.14185
2122.24493 8.05256
2122.27791 7.9977
2122.3109 8.60849
2122.34388 10.8615
2122.37687 16.4309
2122.40985 26.8736
2122.44284 51.5717
2122.47582 82.5813
2122.50881 75.6675
2122.5418 41.1246
2122.57478 19.6544
2122.60777 14.6115
2122.64076 15.7682
2122.67375 20.3779
2122.70674 25.4135
2122.73973 22.058
2122.77272 15.4462
2122.80571 12.0556
2122.8387 10.9134
2122.8717 11.9487
2122.90469 18.1938
2122.93768 39.3668
2122.97068 72.3536
2123.00367 77.3004
2123.03666 46.0452
2123.06966 22.7103
2123.10266 18.271
2123.13565 229.565
2123.16865 6906.08
2123.20165 56093.1
2123.23464 119674
2123.26764 74842.4
2123.30064 16862.8
2123.33364 1472.43
2123.36664 50.5367
2123.39964 14.7131
2123.43264 28.9904
2123.46564 62.1245
2123.49865 88.8135
2123.53165 70.1502
2123.56465 39.2016
2123.59766 23.004
2123.63066 17.4135
2123.66366 14.8738
2123.69667 12.6809
2123.72968 11.7707
2123.76268 12.8164
2123.79569 15.0117
2123.82869 16.5967
2123.8617 17.3892
2123.89471 19.6175
2123.92772 27.5775
2123.96073 50.3247
2123.99374 83.1168
2124.02675 88.312
2124.05976 61.6985
2124.09277 43.509
2124.12578 41.4508
2124.15879 45.3483
2124.19181 53.1385
2124.22482 66.9156
2124.25783 90.3177
2124.29085 131.441
2124.32386 214.019
2124.35688 403.002
2124.3899 829.58
2124.42291 1454.52
2124.45593 1696.46
2124.48895 1230.36
2124.52196 685.494
2124.55498 395.467
2124.588 269.653
2124.62102 223.116
2124.65404 253.351
2124.68706 424.723
2124.72008 748.613
2124.7531 921.164
2124.78613 671.318
2124.81915 344.966
2124.85217 568.109
2124.88519 13041.6
2124.91822 110485
2124.95124 276024
2124.98427 248314
2125.01729 86238.7
2125.05032 9671.18
2125.08335 361.495
2125.11637 44.1587
2125.1494 26.5681
2125.18243 23.7526
2125.21546 24.4249
2125.24849 21.0624
2125.28152 15.8382
2125.31455 12.8216
2125.34758 11.9403
2125.38061 11.6503
2125.41364 11.2246
2125.44667 10.9718
2125.47971 12.2478
2125.51274 18.6521
2125.54577 39.2005
2125.57881 65.1276
2125.61184 60.1974
2125.64488 33.2057
2125.67791 15.7291
2125.71095 9.91144
2125.74399 8.21789
2125.77703 7.5221
2125.81006 6.44941
2125.8431 5.77595
2125.87614 6.38979
2125.90918 8.5521
2125.94222 10.6454
2125.97526 10.6791
2126.0083 11.8302
2126.04134 17.9484
2126.07439 32.2434
2126.10743 53.7018
2126.14047 60.0184
2126.17351 37.1624
2126.20656 17.1326
2126.2396 10.6341
2126.27265 10.3599
2126.30569 11.6343
2126.33874 10.501
2126.37179 8.19826
2126.40483 6.80217
2126.43788 6.15421
2126.47093 6.10191
2126.50398 6.72025
2126.53703 8.07027
2126.57008 10.9626
2126.60313 19.5372
2126.63618 41.8565
2126.66923 64.8446
2126.70228 54.9985
2126.73533 30.3912
2126.76839 17.1915
2126.80144 14.6175
2126.83449 18.9747
2126.86755 32.7292
2126.9006 46.4181
2126.93366 41.2779
2126.96671 30.9438
2126.99977 26.3244
2127.03283 25.4116
2127.06589 24.3134
2127.09894 22.6513
2127.132 24.3588
2127.16506 33.9123
2127.19812 55.3695
2127.23118 71.8086
2127.26424 60.0896
2127.2973 46.2087
2127.33036 45.8729
2127.36343 53.3863
2127.39649 61.7147
2127.42955 69.2194
2127.46262 81.5833
2127.49568 102.799
2127.52874 139.391
2127.56181 208.001
2127.59487 329.252
2127.62794 491.539
2127.66101 716.406
2127.69408 1258.6
2127.72714 2430.52
2127.76021 3967.24
2127.79328 6449.92
2127.82635 8287.85
2127.85942 4115.14
2127.89249 903.194
2127.92556 734.813
2127.95863 3603.53
2127.9917 6952.97
2128.02478 3514.31
2128.05785 512.888
2128.09092 86.8475
2128.124 63.5398
2128.15707 51.6738
2128.19015 41.9358
2128.22322 36.6079
2128.2563 35.0014
2128.28937 38.4512
2128.32245 50.7628
2128.35553 59.135
2128.38861 44.4017
2128.42168 27.2221
2128.45476 20.0737
2128.48784 19.2698
2128.52092 21.1188
2128.554 20.335
2128.58708 16.0305
2128.62017 12.8672
2128.65325 12.3256
2128.68633 12.6811
2128.71941 11.892
2128.7525 10.7271
2128.78558 11.4078
2128.81867 15.8239
2128.85175 23.4927
2128.88484 34.3868
2128.91792 44.447
2128.95101 36.1031
2128.9841 21.3154
2129.01719 17.6955
2129.05027 26.474
2129.08336 32.9305
2129.11645 22.3274
2129.14954 11.2135
2129.18263 7.34824
2129.21572 7.20531
2129.24881 9.7802
2129.28191 13.3994
2129.315 13.2943
2129.34809 10.4557
2129.38119 8.90166
2129.41428 9.69936
2129.44737 16.4313
2129.48047 29.8147
2129.51356 35.5626
2129.54666 26.5803
2129.57976 19.6443
2129.61285 15.1005
2129.64595 9.33187
2129.67905 5.74007
2129.71215 4.28873
2129.74525 3.55887
2129.77835 3.19029
2129.81145 3.14321
2129.84455 3.36751
2129.87765 3.679
2129.91075 4.03644
2129.94385 4.76969
2129.97696 6.87844
2130.01006 13.4702
2130.04316 27.8918
2130.07627 39.6891
2130.10937 31.8927
2130.14248 16.3113
2130.17558 8.02364
2130.20869 5.74016
2130.2418 5.71913
2130.2749 7.54229
2130.30801 11.2573
2130.34112 13.5196
2130.37423 10.6464
2130.40734 7.80063
2130.44045 7.79514
2130.47356 9.96738
2130.50667 16.6381
2130.53978 35.5216
2130.57289 63.3797
2130.606 70.6812
2130.63912 54.6748
2130.67223 42.8724
2130.70534 29.8045
2130.73846 17.4496
2130.77157 13.327
2130.80469 16.3749
2130.83781 19.1105
2130.87092 14.9941
2130.90404 14.5196
2130.93716 17.7473
2130.97028 12.3882
2131.00339 7.20313
2131.03651 7.86492
2131.06963 11.4916
2131.10275 12.7804
2131.13587 11.5955
2131.169 11.4226
2131.20212 11.6189
2131.23524 17.2843
2131.26836 24.7537
2131.30149 20.2546
2131.33461 10.8693
2131.36773 6.04422
2131.40086 4.66356
2131.43398 4.42074
2131.46711 4.29925
2131.50024 9.51732
2131.53336 186.362
2131.56649 1909.74
2131.59962 7437.62
2131.63275 10969.2
2131.66588 4999.65
2131.699 613.771
2131.73213 23.5823
2131.76527 6.41423
2131.7984 11.55
2131.83153 21.9831
2131.86466 54.1524
2131.89779 795.259
2131.93093 6155.55
2131.96406 12284.9
2131.99719 6148.06
2132.03033 776.23
2132.06346 30.2127
2132.0966 5.84103
2132.12973 6.94076
2132.16287 10.252
2132.19601 14.2037
2132.22915 15.4766
2132.26228 15.4815
2132.29542 16.7256
2132.32856 20.9126
2132.3617 26.126
2132.39484 23.3603
2132.42798 18.491
2132.46112 22.5892
2132.49427 269.235
2132.52741 7848.99
2132.56055 62646
2132.5937 125288
2132.62684 62674.1
2132.65998 7854.01
2132.69313 254.144
2132.72627 10.2669
2132.75942 15.274
2132.79257 41.5035
2132.82571 78.9215
2132.85886 75.5875
2132.89201 38.24
2132.92516 15.0507
2132.95831 8.93993
2132.99146 7.47336
2133.02461 7.9329
2133.05776 12.0509
2133.09091 18.856
2133.12406 21.5199
2133.15721 19.7569
2133.19036 16.3359
2133.22352 11.2676
2133.25667 7.11643
2133.28982 6.01854
2133.32298 8.43241
2133.35613 13.1021
2133.38929 15.9287
2133.42245 14.8021
2133.4556 9.91229
2133.48876 6.07606
2133.52192 4.65586
2133.55508 4.79825
2133.58824 6.31635
2133.6214 9.56253
2133.65456 13.703
2133.68772 17.8738
2133.72088 22.5568
2133.75404 21.6849
2133.7872 15.1377
2133.82036 8.78595
2133.85353 5.51823
2133.88669 4.69039
2133.91985 5.15791
2133.95302 6.87148
2133.98618 9.26133
2134.01935 9.03488
2134.05251 7.57202
2134.08568 10.6986
2134.11885 18.5878
2134.15201 20.3297
2134.18518 12.171
2134.21835 6.03197
2134.25152 4.74559
2134.28469 5.7726
2134.31786 9.42148
2134.35103 13.3662
2134.3842 11.1606
2134.41737 6.52302
2134.45055 4.23009
2134.48372 3.45011
2134.51689 3.08812
2134.55007 3.17238
2134.58324 3.69593
2134.61642 4.20816
2134.64959 4.04645
2134.68277 3.59433
2134.71594 3.68434
2134.74912 4.97681
2134.7823 7.85602
2134.81547 9.96369
2134.84865 9.15838
2134.88183 9.41152
2134.91501 10.8829
2134.94819 12.266
2134.98137 14.449
2135.01455 12.7276
2135.04773 8.29636
2135.08092 5.86099
2135.1141 5.36755
2135.14728 5.32941
2135.18047 5.29884
2135.21365 5.48022
2135.24683 5.97043
2135.28002 6.90452
2135.31321 8.36645
2135.34639 9.60586
2135.37958 9.95211
2135.41277 10.3988
2135.44595 11.6923
2135.47914 13.6144
2135.51233 16.1497
2135.54552 20.1929
2135.57871 27.651
2135.6119 39.8112
2135.64509 52.8983
2135.67828 66.3458
2135.71147 94.6334
2135.74467 160.402
2135.77786 283.83
2135.81105 520.543
2135.84425 874.1
2135.87744 991.094
2135.91063 669.996
2135.94383 329.583
2135.97703 173.49
2136.01022 130.536
2136.04342 158.167
2136.07662 232.919
2136.10982 260.665
2136.14301 183.266
2136.17621 96.9391
2136.20941 53.0545
2136.24261 36.7611
2136.27581 31.6301
2136.30901 27.5299
2136.34222 23.4837
2136.37542 19.8774
2136.40862 17.4027
2136.44182 17.3143
2136.47503 16.5057
2136.50823 12.3426
2136.54144 8.71144
2136.57464 6.97425
2136.60785 6.09724
2136.64105 5.6299
2136.67426 5.47062
2136.70747 5.75757
2136.74068 6.67789
2136.77388 8.57639
2136.80709 13.6386
2136.8403 26.5488
2136.87351 38.2428
2136.90672 29.5895
2136.93993 17.6717
2136.97314 10.8953
2137.00636 7.32149
2137.03957 5.87968
2137.07278 5.82749
2137.106 6.93447
2137.13921 10.1489
2137.17242 21.4973
2137.20564 43.4729
2137.23885 56.5995
2137.27207 47.3504
2137.30529 33.4003
2137.3385 32.101
2137.37172 51.0358
2137.40494 73.4335
2137.43816 74.7311
2137.47138 58.4312
2137.5046 42.6993
2137.53782 26.6937
2137.57104 16.4828
2137.60426 12.6843
2137.63748 9.98541
2137.6707 9.55118
2137.70393 10.7326
2137.73715 10.9624
2137.77037 11.097
2137.8036 8.85295
2137.83682 6.41003
2137.87005 5.12651
2137.90327 4.5063
2137.9365 4.19375
2137.96973 4.4743
2138.00296 6.37346
2138.03618 12.6905
2138.06941 20.4977
2138.10264 18.8482
2138.13587 12.5076
2138.1691 8.94364
2138.20233 8.33656
2138.23556 9.86532
2138.26879 12.2144
2138.30203 12.7285
2138.33526 13.4165
2138.36849 18.7885
2138.40172 35.3134
2138.43496 74.6176
2138.46819 120.526
2138.50143 120.432
2138.53466 80.1154
2138.5679 41.0215
2138.60114 20.8347
2138.63437 13.0834
2138.66761 11.5626
2138.70085 15.0747
2138.73409 17.8407
2138.76733 13.1655
2138.80057 9.32232
2138.83381 9.94721
2138.86705 11.748
2138.90029 15.2086
2138.93353 26.9839
2138.96678 41.9023
2139.00002 39.9557
2139.03326 24.8472
2139.06651 14.4182
2139.09975 11.6272
2139.133 13.232
2139.16624 20.8266
2139.19949 44.2021
2139.23273 78.4431
2139.26598 82.8396
2139.29923 50.5978
2139.33248 24.7738
2139.36573 17.4937
2139.39897 22.6094
2139.43222 36.727
2139.46547 44.4398
2139.49872 32.7424
2139.53198 21.7127
2139.56523 28.2991
2139.59848 80.0699
2139.63173 163.795
2139.66499 154.669
2139.69824 71.2633
2139.73149 25.023
2139.76475 14.4821
2139.798 12.134
2139.83126 12.5933
2139.86452 16.8148
2139.89777 28.8681
2139.93103 58.228
2139.96429 87.8831
2139.99755 70.8262
2140.03081 36.605
2140.06407 19.6853
2140.09733 12.2094
2140.13059 7.59616
2140.16385 5.84224
2140.19711 6.62371
2140.23037 8.65548
2140.26363 8.43487
2140.2969 5.90491
2140.33016 4.39997
2140.36342 4.96077
2140.39669 7.66021
2140.42995 10.1453
2140.46322 8.67076
2140.49649 6.43838
2140.52975 6.20823
2140.56302 7.67938
2140.59629 9.61304
2140.62956 9.63219
2140.66282 7.10859
2140.69609 5.85628
2140.72936 6.07327
2140.76263 6.5283
2140.7959 8.05343
2140.82918 10.7178
2140.86245 18.3119
2140.89572 28.2285
2140.92899 28.2618
2140.96227 23.2735
2140.99554 15.3884
2141.02882 8.90767
2141.06209 5.32251
2141.09537 3.73333
2141.12864 3.21232
2141.16192 3.22231
2141.1952 3.49408
2141.22847 3.6851
2141.26175 4.53363
2141.29503 6.75358
2141.32831 8.30091
2141.36159 7.63294
2141.39487 8.56574
2141.42815 9.94393
2141.46143 7.62998
2141.49471 5.04265
2141.52799 3.92509
2141.56128 3.87714
2141.59456 4.09078
2141.62784 3.6853
2141.66113 3.23703
2141.69441 3.56467
2141.7277 5.67489
2141.76098 7.89535
2141.79427 6.60906
2141.82756 5.92506
2141.86084 9.60578
2141.89413 26.0244
2141.92742 56.1221
2141.96071 62.989
2141.994 33.8975
2142.02729 13.9093
2142.06058 11.5862
2142.09387 13.214
2142.12716 14.4966
2142.16045 24.4348
2142.19375 42.8444
2142.22704 49.2069
2142.26033 48.1908
2142.29363 50.8004
2142.32692 39.8542
2142.36022 25.1613
2142.39351 26.0816
2142.42681 36.6506
2142.46011 41.5825
2142.4934 44.2981
2142.5267 42.859
2142.56 29.1262
2142.5933 14.8107
2142.6266 7.98457
2142.6599 5.85572
2142.6932 5.54846
2142.7265 6.40253
2142.7598 8.8168
2142.7931 12.4725
2142.8264 17.8405
2142.85971 36.1758
2142.89301 68.7152
2142.92631 90.5276
2142.95962 88.3583
2142.99292 57.621
2143.02623 30.085
2143.05954 17.2089
2143.09284 10.6109
2143.12615 7.64818
2143.15946 7.06401
2143.19276 8.59684
2143.22607 15.8424
2143.25938 37.6028
2143.29269 66.6014
2143.326 73.2058
2143.35931 57.0261
2143.39262 30.7987
2143.42594 18.2397
2143.45925 25.3313
2143.49256 43.6573
2143.52587 59.1879
2143.55919 65.2728
2143.5925 50.246
2143.62582 25.5196
2143.65913 12.074
2143.69245 7.53785
2143.72576 5.74448
2143.75908 5.75638
2143.7924 7.50013
2143.82572 8.85104
2143.85904 7.20759
2143.89235 4.9931
2143.92567 3.94898
2143.95899 3.57061
2143.99231 3.64805
2144.02564 4.44969
2144.05896 6.34081
2144.09228 8.07356
2144.1256 7.23623
2144.15892 5.31347
2144.19225 4.36969
2144.22557 4.33263
2144.2589 4.75939
2144.29222 5.32455
2144.32555 5.90332
2144.35887 6.84842
2144.3922 8.60581
2144.42553 11.4267
2144.45886 15.4242
2144.49218 23.0229
2144.52551 43.7434
2144.55884 96.3661
2144.59217 169.273
2144.6255 187.311
2144.65883 134.636
2144.69217 77.0275
2144.7255 40.3643
2144.75883 22.1996
2144.79216 15.6651
2144.8255 13.4649
2144.85883 11.9773
2144.89216 11.5617
2144.9255 12.4952
2144.95883 12.6892
2144.99217 11.2218
2145.02551 10.8758
2145.05884 13.0251
2145.09218 15.6443
2145.12552 15.3764
2145.15886 13.2387
2145.1922 12.815
2145.22554 13.9275
2145.25888 13.3686
2145.29222 11.3284
2145.32556 9.95422
2145.3589 9.84079
2145.39224 10.2603
2145.42559 10.211
2145.45893 11.2293
2145.49227 12.2557
2145.52562 14.2336
2145.55896 15.314
2145.59231 13.7257
2145.62565 13.9417
2145.659 15.2604
2145.69235 16.4019
2145.7257 19.9287
2145.75904 25.4557
2145.79239 39.7021
2145.82574 79.3661
2145.85909 129.372
2145.89244 130.451
2145.92579 84.2961
2145.95914 49.8837
2145.99249 37.0941
2146.02585 38.6629
2146.0592 50.8578
2146.09255 55.5387
2146.12591 41.9609
2146.15926 31.7054
2146.19261 26.698
2146.22597 18.8008
2146.25933 15.6613
2146.29268 19.5007
2146.32604 21.0087
2146.3594 16.9421
2146.39275 18.0158
2146.42611 28.4126
2146.45947 43.6103
2146.49283 57.3753
2146.52619 55.3037
2146.55955 40.458
2146.59291 28.0908
2146.62627 17.9572
2146.65963 15.3076
2146.693 21.8483
2146.72636 26.5496
2146.75972 20.5073
2146.79309 16.1537
2146.82645 21.1987
2146.85982 28.5475
2146.89318 23.9024
2146.92655 15.9259
2146.95992 16.8642
2146.99328 26.4078
2147.02665 31.3486
2147.06002 23.5891
2147.09339 19.4501
2147.12676 28.3939
2147.16013 49.349
2147.1935 81.1
2147.22687 112.648
2147.26024 116.926
2147.29361 125.855
2147.32698 131.514
2147.36036 95.4849
2147.39373 73.2009
2147.4271 75.913
2147.46048 66.1502
2147.49385 54.972
2147.52723 41.7171
2147.5606 27.0642
2147.59398 25.5725
2147.62736 42.4802
2147.66074 61.9156
2147.69411 55.2868
2147.72749 32.7768
2147.76087 21.2879
2147.79425 24.7817
2147.82763 40.0714
2147.86101 51.753
2147.89439 42.2757
2147.92777 33.4475
2147.96116 39.4906
2147.99454 64.7055
2148.02792 114.456
2148.06131 201.659
2148.09469 358.601
2148.12808 471.349
2148.16146 364.285
2148.19485 205.365
2148.22823 125.637
2148.26162 77.521
2148.29501 44.6671
2148.32839 31.0989
2148.36178 32.5205
2148.39517 48.9027
2148.42856 62.5475
2148.46195 47.4232
2148.49534 27.5064
2148.52873 20.3491
2148.56212 25.5026
2148.59552 44.4078
2148.62891 59.6916
2148.6623 46.9413
2148.6957 29.9364
2148.72909 23.1333
2148.76248 28.1761
2148.79588 50.6721
2148.82928 80.9765
2148.86267 112.289
2148.89607 190.316
2148.92947 244.547
2148.96286 163.38
2148.99626 86.8921
2149.02966 74.6158
2149.06306 63.4846
2149.09646 39.5943
2149.12986 27.5567
2149.16326 29.9504
2149.19666 40.8951
2149.23006 66.5875
2149.26347 102.148
2149.29687 111.536
2149.33027 89.3123
2149.36368 81.4114
2149.39708 91.6913
2149.43049 86.8015
2149.46389 91.0466
2149.4973 103.835
2149.53071 112.513
2149.56411 108.138
2149.59752 77.1332
2149.63093 56.0187
2149.66434 69.5583
2149.69775 96.9023
2149.73116 98.5849
2149.76457 91.9576
2149.79798 123.593
2149.83139 242.547
2149.8648 507.805
2149.89821 771.692
2149.93162 698.057
2149.96504 405.094
2149.99845 188.623
2150.03187 95.3138
2150.06528 60.6246
2150.0987 50.0644
2150.13211 60.0313
2150.16553 83.0517
2150.19895 84.3665
2150.23236 57.9741
2150.26578 36.9862
2150.2992 31.3445
2150.33262 32.5863
2150.36604 44.3572
2150.39946 248.696
2150.43288 5863.55
2150.4663 46318.4
2150.49972 92697.5
2150.53314 46689.2
2150.56657 6132.42
2150.59999 476.294
2150.63341 1984.24
2150.66684 54992.6
2150.70026 438530
2150.73369 876905
2150.76711 438469
2150.80054 54842.9
2150.83397 1752.41
2150.86739 69.0755
2150.90082 90.3374
2150.93425 110.677
2150.96768 93.6681
2151.00111 182.811
2151.03454 929.533
2151.06797 1801.52
2151.1014 1002.62
2151.13483 268.092
2151.16826 188.441
2151.2017 238.899
2151.23513 416.704
2151.26856 1355.31
2151.302 2722.9
2151.33543 2812.71
2151.36887 2671.75
2151.4023 2018.92
2151.43574 1118.94
2151.46918 587.362
2151.50261 344.141
2151.53605 237.915
2151.56949 204.535
2151.60293 214.314
2151.63637 269.554
2151.66981 439.123
2151.70325 822.398
2151.73669 1292.77
2151.77013 1445.73
2151.80357 1161.74
2151.83701 682.691
2151.87046 370.663
2151.9039 284.869
2151.93735 277.914
2151.97079 221.746
2152.00423 161.941
2152.03768 124.411
2152.07113 125.366
2152.10457 142.528
2152.13802 127.703
2152.17147 121.11
2152.20492 123.107
2152.23836 132.761
2152.27181 180.203
2152.30526 238.434
2152.33871 313.222
2152.37216 476.935
2152.40562 731.078
2152.43907 914.175
2152.47252 756.387
2152.50597 436.983
2152.53943 239.276
2152.57288 162.349
2152.60633 114.899
2152.63979 84.5791
2152.67324 75.1291
2152.7067 78.0901
2152.74016 113.978
2152.77361 912.807
2152.80707 7316.94
2152.84053 20850.7
2152.87399 23326.9
2152.90745 10019.6
2152.94091 2582.02
2152.97437 1755.42
2153.00783 1163.4
2153.04129 567.968
2153.07475 291.004
2153.10821 191.694
2153.14168 150.348
2153.17514 120.604
2153.2086 88.9633
2153.24207 68.1764
2153.27553 60.8978
2153.309 62.2313
2153.34246 72.5882
2153.37593 98.9306
2153.4094 152.131
2153.44286 258.176
2153.47633 492.692
2153.5098 852.038
2153.54327 995.74
2153.57674 690.194
2153.61021 345.759
2153.64368 784.176
2153.67715 19808
2153.71062 159438
2153.74409 332736
2153.77757 194305
2153.81104 38288.8
2153.84451 2982.18
2153.87799 114.865
2153.91146 38.2048
2153.94494 42.4154
2153.97841 50.6814
2154.01189 65.5203
2154.04537 91.4542
2154.07884 120.9
2154.11232 160.092
2154.1458 263.867
2154.17928 521.174
2154.21276 864.204
2154.24624 926.217
2154.27972 616.969
2154.3132 325.672
2154.34668 213.819
2154.38016 212.96
2154.41364 383.8
2154.44713 1603.08
2154.48061 3005.37
2154.51409 1521.88
2154.54758 242.443
2154.58106 81.3191
2154.61455 129.221
2154.64804 256.795
2154.68152 396.715
2154.71501 371.976
2154.7485 222.788
2154.78199 119.155
2154.81547 251.344
2154.84896 1490.8
2154.88245 2999.55
2154.91594 1734.64
2154.94943 432.68
2154.98293 124.474
2155.01642 63.2844
2155.04991 51.3142
2155.0834 40.7505
2155.1169 33.1239
2155.15039 38.177
2155.18388 72.3965
2155.21738 162.787
2155.25088 241.995
2155.28437 203.163
2155.31787 174.923
2155.35136 192.006
2155.38486 174.357
2155.41836 129.188
2155.45186 101.487
2155.48536 127.153
2155.51886 147.448
2155.55236 104.842
2155.58586 78.249
2155.61936 115.662
2155.65286 240.248
2155.68636 400.524
2155.71987 412.343
2155.75337 266.776
2155.78687 127.005
2155.82038 59.1054
2155.85388 33.6496
2155.88739 23.2845
2155.92089 18.4
2155.9544 16.3772
2155.98791 17.4119
2156.02142 24.4159
2156.05492 37.2347
2156.08843 42.6299
2156.12194 33.9582
2156.15545 29.485
2156.18896 37.7908
2156.22247 44.9039
2156.25598 39.4022
2156.28949 32.5544
2156.32301 39.3108
2156.35652 71.9128
2156.39003 146.231
2156.42355 232.606
2156.45706 255.66
2156.49057 203.92
2156.52409 108.331
2156.55761 47.1006
2156.59112 27.9203
2156.62464 22.4952
2156.65816 30.5093
2156.69167 422.178
2156.72519 3561.47
2156.75871 9472.18
2156.79223 9478.97
2156.82575 3573.82
2156.85927 427.386
2156.89279 27.4124
2156.92631 16.282
2156.95984 20.4494
2156.99336 24.1829
2157.02688 39.0471
2157.06041 68.5015
2157.09393 84.0189
2157.12745 71.5919
2157.16098 56.1627
2157.1945 39.5721
2157.22803 23.6642
2157.26156 15.8033
2157.29508 15.6321
2157.32861 24.4057
2157.36214 43.0098
2157.39567 56.4009
2157.4292 63.0689
2157.46273 103.526
2157.49626 166.454
2157.52979 168.835
2157.56332 102.979
2157.59685 48.9187
2157.63039 26.2947
2157.66392 18.2565
2157.69745 16.5422
2157.73099 18.3659
2157.76452 26.01
2157.79806 49.7763
2157.83159 98.6521
2157.86513 138.566
2157.89866 122.03
2157.9322 138.874
2157.96574 2047.49
2157.99928 20948.6
2158.03282 81443.3
2158.06636 120780
2158.0999 57027.7
2158.13344 8291.15
2158.16698 644.772
2158.20052 105.849
2158.23406 60.0531
2158.2676 71.7157
2158.30115 88.1002
2158.33469 71.9534
2158.36823 40.5026
2158.40178 24.0308
2158.43532 19.9822
2158.46887 19.5271
2158.50241 20.8568
2158.53596 24.3032
2158.56951 30.4014
2158.60305 37.6789
2158.6366 51.1758
2158.67015 68.663
2158.7037 67.1405
2158.73725 52.2789
2158.7708 45.2349
2158.80435 47.6493
2158.8379 56.3637
2158.87145 71.8398
2158.90501 97.3934
2158.93856 140.806
2158.97211 224.207
2159.00567 415.426
2159.03922 872.061
2159.07278 1656.91
2159.10633 2147.28
2159.13989 1655.65
2159.17344 870.84
2159.207 415.744
2159.24056 225.904
2159.27412 143.809
2159.30767 101.775
2159.34123 77.3397
2159.37479 64.8152
2159.40835 65.6295
2159.44191 81.8207
2159.47548 91.9593
2159.50904 72.7852
2159.5426 52.2614
2159.57616 41.8453
2159.60973 36.1381
2159.64329 35.237
2159.67685 37.6189
2159.71042 41.309
2159.74398 47.5359
2159.77755 59.6108
2159.81112 87.4902
2159.84468 143.464
2159.87825 224.308
2159.91182 359.263
2159.94539 647.603
2159.97896 947.152
2160.01252 873.96
2160.04609 525.106
2160.07967 259.603
2160.11324 138.428
2160.14681 86.5858
2160.18038 64.1904
2160.21395 60.5509
2160.24753 77.1092
2160.2811 94.4179
2160.31467 84.2981
2160.34825 74.6499
2160.38182 74.8961
2160.4154 71.3031
2160.44898 57.0451
2160.48255 46.5362
2160.51613 39.9326
2160.54971 36.3892
2160.58329 33.9618
2160.61686 36.214
2160.65044 55.2685
2160.68402 83.2234
2160.7176 85.2737
2160.75119 71.4457
2160.78477 88.7874
2160.81835 188.105
2160.85193 374.294
2160.88551 526.252
2160.9191 564.879
2160.95268 506.209
2160.98627 437.436
2161.01985 474.696
2161.05344 558.015
2161.08702 519.465
2161.12061 360.734
2161.1542 217.343
2161.18779 198.079
2161.22137 272.882
2161.25496 307.191
2161.28855 309.606
2161.32214 337.792
2161.35573 371.46
2161.38932 425.759
2161.42291 326.185
2161.45651 168.806
2161.4901 97.4024
2161.52369 92.8514
2161.55729 87.2767
2161.59088 65.0649
2161.62447 49.3944
2161.65807 40.3338
2161.69166 45.3433
2161.72526 57.9863
2161.75886 47.0098
2161.79245 29.0392
2161.82605 24.8333
2161.85965 38.2655
2161.89325 66.6031
2161.92685 91.4179
2161.96045 96.7846
2161.99405 74.2334
2162.02765 43.4223
2162.06125 29.9626
2162.09485 40.9348
2162.12846 217.945
2162.16206 1509.37
2162.19566 3931.63
2162.22927 3941.79
2162.26287 1509.44
2162.29647 232.585
2162.33008 122.41
2162.36369 166.99
2162.39729 169.361
2162.4309 156.809
2162.46451 175.265
2162.49812 263.067
2162.53172 454.841
2162.56533 630.491
2162.59894 565.414
2162.63255 358.681
2162.66616 224.45
2162.69978 165.19
2162.73339 112.542
2162.767 82.4357
2162.80061 89.1115
2162.83423 116.25
2162.86784 124.128
2162.90145 106.09
2162.93507 94.9946
2162.96868 98.29
2163.0023 98.2098
2163.03592 95.1323
2163.06953 99.9309
2163.10315 114.619
2163.13677 138.549
2163.17039 174.652
2163.20401 229.392
2163.23763 317.64
2163.27125 468.304
2163.30487 718.259
2163.33849 1216.95
2163.37211 2468.91
2163.40573 4896.75
2163.43936 6797.62
2163.47298 5653.1
2163.5066 3456.26
2163.54023 2722.1
2163.57385 3240.29
2163.60748 3310.02
2163.6411 3681.35
2163.67473 14197.7
2163.70836 35186.5
2163.74198 34841.2
2163.77561 13179.3
2163.80924 1684.24
2163.84287 205.348
2163.8765 125.952
2163.91013 98.6173
2163.94376 81.5916
2163.97739 73.8373
2164.01102 71.7704
2164.04465 66.2374
2164.07829 56.1195
2164.11192 49.6655
2164.14555 54.7335
2164.17919 75.3314
2164.21282 89.8861
2164.24646 74.462
2164.28009 55.6262
2164.31373 40.4681
2164.34737 29.787
2164.381 24.6424
2164.41464 21.4933
2164.44828 20.6241
2164.48192 23.6976
2164.51556 27.2653
2164.5492 26.7245
2164.58284 33.3435
2164.61648 58.7063
2164.65012 92.4803
2164.68376 105.193
2164.71741 89.5729
2164.75105 60.0674
2164.78469 34.3626
2164.81834 23.4874
2164.85198 23.1262
2164.88563 32.4289
2164.91927 66.7872
2164.95292 105.966
2164.98657 89.4892
2165.02021 55.7407
2165.05386 59.6332
2165.08751 98.3979
2165.12116 128.619
2165.15481 113.343
2165.18846 64.4079
2165.22211 29.9751
2165.25576 17.8326
2165.28941 14.508
2165.32306 13.6473
2165.35672 15.4459
2165.39037 23.0398
2165.42402 32.2231
2165.45768 31.0037
2165.49133 24.6344
2165.52499 27.8107
2165.55864 51.8732
2165.5923 101.937
2165.62596 165.861
2165.65961 213.693
2165.69327 184.403
2165.72693 95.7982
2165.76059 39.2543
2165.79425 22.043
2165.82791 17.7216
2165.86157 16.7235
2165.89523 16.6506
2165.92889 18.3812
2165.96255 22.6084
2165.99621 31.7839
2166.02988 50.6918
2166.06354 78.8428
2166.0972 103.091
2166.13087 109.9
2166.16453 128.022
2166.1982 204.931
2166.23187 343.948
2166.26553 409.68
2166.2992 297.529
2166.33287 156.865
2166.36654 85.3543
2166.40021 62.1998
2166.43387 67.5361
2166.46754 105.318
2166.50121 176.31
2166.53489 227.834
2166.56856 204.37
2166.60223 164.623
2166.6359 157.289
2166.66957 194.497
2166.70325 276.182
2166.73692 397.275
2166.7706 474.53
2166.80427 470.904
2166.83795 419.565
2166.87162 275.008
2166.9053 189.599
2166.93898 183.717
2166.97265 158.768
2167.00633 165.363
2167.04001 312.761
2167.07369 585.885
2167.10737 733.533
2167.14105 610.231
2167.17473 342.165
2167.20841 169.178
2167.24209 99.3107
2167.27578 65.6187
2167.30946 49.3189
2167.34314 48.5296
2167.37683 62.6141
2167.41051 77.5085
2167.4442 76.6847
2167.47788 82.6452
2167.51157 107.678
2167.54525 124.592
2167.57894 110.004
2167.61263 68.0321
2167.64632 37.75
2167.68001 27.1012
2167.7137 25.9282
2167.74739 32.3458
2167.78108 46.2896
2167.81477 65.3105
2167.84846 110.13
2167.88215 196.536
2167.91584 239.165
2167.94953 162.708
2167.98323 86.9957
2168.01692 66.3264
2168.05062 70.5289
2168.08431 75.0821
2168.11801 62.6101
2168.1517 50.9801
2168.1854 52.7453
2168.2191 62.8976
2168.25279 77.8446
2168.28649 93.4858
2168.32019 101.552
2168.35389 116.265
2168.38759 133.936
2168.42129 148.189
2168.45499 174.732
2168.48869 232.8
2168.52239 344.297
2168.5561 560.092
2168.5898 1023.24
2168.6235 2097.4
2168.65721 3928.9
2168.69091 5021.76
2168.72461 3815.13
2168.75832 1989.76
2168.79203 956.762
2168.82573 529.92
2168.85944 336.635
2168.89315 233.462
2168.92685 179.949
2168.96056 155.788
2168.99427 139.392
2169.02798 116.99
2169.06169 106.31
2169.0954 167.671
2169.12911 651.306
2169.16283 1517.67
2169.19654 1429.09
2169.23025 541.692
2169.26396 99.5774
2169.29768 50.4795
2169.33139 51.7681
2169.36511 62.7509
2169.39882 128.519
2169.43254 281.263
2169.46625 365.568
2169.49997 222.754
2169.53369 86.7326
2169.56741 51.9372
2169.60113 59.7222
2169.63484 69.8316
2169.66856 78.3268
2169.70228 95.1815
2169.736 84.2874
2169.76973 56.626
2169.80345 41.3925
2169.83717 35.1356
2169.87089 36.1327
2169.90462 34.1388
2169.93834 25.4367
2169.97206 20.9576
2170.00579 28.3436
2170.03951 48.6713
2170.07324 67.5383
2170.10697 74.0442
2170.14069 75.5872
2170.17442 64.2943
2170.20815 53.7691
2170.24188 71.7278
2170.27561 148.596
2170.30934 269.823
2170.34307 307.275
2170.3768 205.814
2170.41053 109.589
2170.44426 73.8334
2170.47799 55.1844
2170.51172 43.0341
2170.54546 33.9285
2170.57919 27.2134
2170.61292 24.351
2170.64666 44.7027
2170.68039 485.74
2170.71413 3631.02
2170.74787 7646.6
2170.7816 7198.6
2170.81534 7646.53
2170.84908 3627.57
2170.88282 469.17
2170.91656 26.3575
2170.9503 10.3655
2170.98404 199.319
2171.01778 6128.18
2171.05152 49194.9
2171.08526 104483
2171.119 98390.4
2171.15274 103259
2171.18649 48566.5
2171.22023 6081.61
2171.25397 227.88
2171.28772 35.6327
2171.32146 39.4688
2171.35521 55.1841
2171.38896 57.1796
2171.4227 44.3411
2171.45645 41.5786
2171.4902 49.2694
2171.52395 48.8239
2171.5577 33.0854
2171.59145 18.8516
2171.6252 14.2572
2171.65895 17.5356
2171.6927 27.3606
2171.72645 41.6413
2171.7602 55.6766
2171.79395 56.7363
2171.82771 53.1536
2171.86146 65.9295
2171.89521 82.1718
2171.92897 71.7525
2171.96272 47.0064
2171.99648 38.9795
2172.03024 48.9478
2172.06399 50.4572
2172.09775 41.8159
2172.13151 46.2645
2172.16527 55.9306
2172.19903 52.4221
2172.23279 44.5407
2172.26654 47.6151
2172.30031 52.629
2172.33407 46.0439
2172.36783 39.3572
2172.40159 43.6287
2172.43535 62.3991
2172.46912 116.683
2172.50288 288.428
2172.53664 668.891
2172.57041 1000.44
2172.60417 963.79
2172.63794 880.903
2172.67171 714.154
2172.70547 457.093
2172.73924 276.643
2172.77301 215.155
2172.80678 283.431
2172.84054 483.014
2172.87431 546.671
2172.90808 334.292
2172.94185 169.629
2172.97562 141.651
2173.0094 207.535
2173.04317 379.932
2173.07694 526.62
2173.11071 437.414
2173.14449 240.886
2173.17826 122.783
2173.21204 80.4843
2173.24581 61.517
2173.27959 50.7694
2173.31336 47.9829
2173.34714 44.6217
2173.38092 38.8896
2173.4147 36.3893
2173.44847 31.1122
2173.48225 24.5348
2173.51603 22.1419
2173.54981 24.5961
2173.58359 31.2887
2173.61737 38.6049
2173.65115 41.9392
2173.68494 46.0609
2173.71872 61.9706
2173.7525 110.141
2173.78629 284.946
2173.82007 831.502
2173.85385 1454.34
2173.88764 1188
2173.92142 526.085
2173.95521 192.659
2173.989 107.15
2174.02279 85.7249
2174.05657 85.7735
2174.09036 88.4244
2174.12415 80.6905
2174.15794 73.2145
2174.19173 68.9451
2174.22552 72.369
2174.25931 85.9099
2174.2931 111.67
2174.32689 153.804
2174.36069 222.665
2174.39448 361.314
2174.42827 695.66
2174.46207 1514.79
2174.49586 2834.33
2174.52966 3421.99
2174.56345 2378.86
2174.59725 1135.78
2174.63105 523.514
2174.66484 286.212
2174.69864 182.34
2174.73244 129.402
2174.76624 101.111
2174.80004 85.3763
2174.83384 74.836
2174.86764 69.9345
2174.90144 73.5151
2174.93524 98.4069
2174.96904 152.577
2175.00284 195.958
2175.03665 170.438
2175.07045 105.793
2175.10425 73.9352
2175.13806 71.1829
2175.17186 62.1999
2175.20567 53.2132
2175.23948 51.9202
2175.27328 61.3408
2175.30709 94.3916
2175.3409 189.049
2175.37471 392.328
2175.40851 567.891
2175.44232 465.996
2175.47613 249.688
2175.50994 124.014
2175.54375 73.8312
2175.57757 50.5514
2175.61138 39.2269
2175.64519 35.0414
2175.679 36.1233
2175.71282 38.9832
2175.74663 37.901
2175.78045 36.4252
2175.81426 38.9767
2175.84808 44.5848
2175.88189 51.4629
2175.91571 62.2222
2175.94953 97.7895
2175.98334 271.552
2176.01716 488.341
2176.05098 419.227
2176.0848 542.035
2176.11862 989.825
2176.15244 1228.39
2176.18626 965.75
2176.22008 843.978
2176.2539 1430.95
2176.28773 2537.96
2176.32155 2841.09
2176.35537 1949.1
2176.3892 986.819
2176.42302 484.547
2176.45685 274.141
2176.49067 176.5
2176.5245 120.168
2176.55832 86.5573
2176.59215 66.3149
2176.62598 53.0632
2176.65981 43.8982
2176.69364 37.517
2176.72747 33.0542
2176.7613 30.0037
2176.79513 27.7898
2176.82896 25.2459
2176.86279 24.0652
2176.89662 24.0679
2176.93045 21.4389
2176.96429 18.2233
2176.99812 17.0188
2177.03195 17.3088
2177.06579 19.6127
2177.09962 23.8647
2177.13346 28.3205
2177.16729 36.9819
2177.20113 47.4849
2177.23497 45.6396
2177.26881 38.0365
2177.30264 32.0417
2177.33648 21.8829
2177.37032 14.1473
2177.40416 11.7031
2177.438 12.3478
2177.47184 16.1354
2177.50568 21.6569
2177.53953 22.534
2177.57337 25.2663
2177.60721 102.363
2177.64106 365.564
2177.6749 537.615
2177.70874 253.616
2177.74259 45.3292
2177.77643 18.5018
2177.81028 18.3994
2177.84413 20.5454
2177.87797 27.0594
2177.91182 44.9534
2177.94567 78.9201
2177.97952 101.008
2178.01337 78.4923
2178.04722 50.8274
2178.08107 40.9622
2178.11492 37.9602
2178.14877 36.4183
2178.18262 42.5705
2178.21647 63.2369
2178.25033 101.956
2178.28418 181.061
2178.31803 401.567
2178.35189 721.618
2178.38574 872.273
2178.4196 882.894
2178.45346 754.693
2178.48731 748.154
2178.52117 1035.95
2178.55503 1010.49
2178.58889 535.301
2178.62274 200.789
2178.6566 96.4596
2178.69046 65.8557
2178.72432 53.9615
2178.75818 46.0381
2178.79205 40.3006
2178.82591 37.7989
2178.85977 38.0976
2178.89363 40.4413
2178.9275 44.7176
2178.96136 52.2408
2178.99523 90.0944
2179.02909 311.786
2179.06296 611.852
2179.09682 474.529
2179.13069 283.473
2179.16456 442.423
2179.19842 1536.97
2179.23229 3202.2
2179.26616 3510.49
2179.30003 3454.61
2179.3339 3220.76
2179.36777 2724.78
2179.40164 1296.2
2179.43551 435.659
2179.46938 355.487
2179.50326 438.053
2179.53713 598.929
2179.571 773.16
2179.60488 491.437
2179.63875 296.042
2179.67263 227.463
2179.7065 175.989
2179.74038 163.368
2179.77425 125.572
2179.80813 75.376
2179.84201 44.7945
2179.87589 30.9058
2179.90977 26.3594
2179.94365 27.3882
2179.97753 27.5807
2180.01141 21.9839
2180.04529 16.5512
2180.07917 19.0874
2180.11305 667.504
2180.14693 21446.3
2180.18081 187069
2180.2147 498818
2180.24858 498802
2180.28247 187066
2180.31635 21477.6
2180.35024 732.6
2180.38412 100.964
2180.41801 66.8968
2180.4519 32.83
2180.48578 17.6576
2180.51967 12.6791
2180.55356 11.4365
2180.58745 11.0553
2180.62134 9.69055
2180.65523 8.34756
2180.68912 7.9002
2180.72301 8.30576
2180.75691 9.71152
2180.7908 12.3425
2180.82469 18.8064
2180.85858 43.4913
2180.89248 98.4908
2180.92637 135.519
2180.96027 102.863
2180.99416 54.4415
2181.02806 24.3182
2181.06196 11.8852
2181.09585 8.3348
2181.12975 7.1497
2181.16365 6.9343
2181.19755 7.52687
2181.23145 8.05077
2181.26535 7.7973
2181.29925 8.00814
2181.33315 8.99225
2181.36705 11.4426
2181.40095 13.9425
2181.43485 11.6841
2181.46876 7.90563
2181.50266 6.07155
2181.53656 5.54127
2181.57047 5.41283
2181.60437 5.43781
2181.63828 5.59173
2181.67219 5.8386
2181.70609 6.03314
2181.74 6.19436
2181.77391 6.67003
2181.80782 7.89684
2181.84172 9.54614
2181.87563 9.93701
2181.90954 8.81199
2181.94345 8.03508
2181.97736 8.04826
2182.01128 8.42557
2182.04519 8.98341
2182.0791 9.62356
2182.11301 10.2786
2182.14693 10.9508
2182.18084 11.7359
2182.21476 12.7131
2182.24867 13.9067
2182.28259 15.3859
2182.3165 17.3524
2182.35042 20.1084
2182.38434 24.0219
2182.41825 30.7107
2182.45217 42.2357
2182.48609 52.5365
2182.52001 52.9967
2182.55393 52.0093
2182.58785 59.0942
2182.62177 76.4128
2182.65569 112.128
2182.68961 196.948
2182.72354 402.049
2182.75746 720.3
2182.79138 849.331
2182.82531 599.582
2182.85923 318.343
2182.89316 186.834
2182.92708 142.028
2182.96101 130.62
2182.99494 135.007
2183.02886 151.613
2183.06279 183.414
2183.09672 246.123
2183.13065 369.232
2183.16458 520.051
2183.19851 635.743
2183.23244 871.566
2183.26637 1525.01
2183.3003 3242.19
2183.33423 6642.67
2183.36816 9388.12
2183.4021 7697.61
2183.43603 4086.41
2183.46996 1867.1
2183.5039 966.763
2183.53783 587.139
2183.57177 398.407
2183.60571 290.032
2183.63964 220.957
2183.67358 174.389
2183.70752 142.485
2183.74146 120.575
2183.77539 105.909
2183.80933 96.8669
2183.84327 92.625
2183.87721 94.7519
2183.91115 109.508
2183.9451 159.616
2183.97904 328.077
2184.01298 710.329
2184.04692 1067.96
2184.08087 946.512
2184.11481 517.718
2184.14876 231.881
2184.1827 127.012
2184.21665 91.6784
2184.25059 79.1563
2184.28454 76.3141
2184.31849 80.5298
2184.35243 95.5987
2184.38638 131.757
2184.42033 172.127
2184.45428 176.468
2184.48823 184.601
2184.52218 227.899
2184.55613 312.347
2184.59008 558.499
2184.62404 1301.79
2184.65799 2424.09
2184.69194 2768.74
2184.7259 2150.87
2184.75985 1415.6
2184.7938 1116.54
2184.82776 1449.7
2184.86171 2886.62
2184.89567 6496.26
2184.92963 10547.2
2184.96358 9697.73
2184.99754 5317.61
2185.0315 2266.73
2185.06546 1083.86
2185.09942 631.822
2185.13338 418.293
2185.16734 300.33
2185.2013 229.365
2185.23526 185.088
2185.26922 156.581
2185.30319 141.418
2185.33715 151.407
2185.37111 240.328
2185.40508 536.407
2185.43904 878.641
2185.47301 793.018
2185.50697 499.783
2185.54094 243.494
2185.57491 113.803
2185.60887 72.4233
2185.64284 56.2871
2185.67681 54.4232
2185.71078 71.9082
2185.74475 93.1757
2185.77872 80.9686
2185.81269 49.6902
2185.84666 29.6555
2185.88063 21.2767
2185.9146 17.3068
2185.94858 15.0686
2185.98255 13.6755
2186.01652 12.4138
2186.0505 11.1844
2186.08447 10.2916
2186.11845 9.72435
2186.15242 9.37873
2186.1864 9.23212
2186.22037 9.39572
2186.25435 10.454
2186.28833 13.9193
2186.32231 19.6507
2186.35629 21.7437
2186.39027 17.3835
2186.42425 12.8786
2186.45823 11.366
2186.49221 11.5546
2186.52619 12.234
2186.56017 13.0855
2186.59415 14.461
2186.62814 17.0888
2186.66212 22.8052
2186.69611 30.2673
2186.73009 32.4839
2186.76408 31.5457
2186.79806 34.2048
2186.83205 41.4151
2186.86603 52.9593
2186.90002 70.9837
2186.93401 101.695
2186.968 162.092
2187.00199 312.612
2187.03598 765.634
2187.06997 1820.73
2187.10396 2706.79
2187.13795 2036.7
2187.17194 925.821
2187.20593 376.384
2187.23992 457.345
2187.27392 8879.58
2187.30791 76528.3
2187.34191 203918
2187.3759 203922
2187.4099 76512.2
2187.44389 8825.09
2187.47789 339.938
2187.51188 88.6976
2187.54588 113.079
2187.57988 166.157
2187.61388 296.252
2187.64788 664.691
2187.68188 1388.51
2187.71588 2033.95
2187.74988 1963.43
2187.78388 1296.58
2187.81788 657.081
2187.85188 329.137
2187.88589 201.948
2187.91989 145.609
2187.95389 119.633
2187.9879 113.107
2188.0219 121.472
2188.05591 147.258
2188.08991 203.748
2188.12392 336.53
2188.15793 704.973
2188.19193 1648.56
2188.22594 2853.18
2188.25995 2841.49
2188.29396 1640.99
2188.32797 712.794
2188.36198 336.605
2188.39599 190.196
2188.43 124.184
2188.46401 88.8873
2188.49802 67.8198
2188.53204 54.5856
2188.56605 46.8543
2188.60006 44.8012
2188.63408 45.3514
2188.66809 41.8049
2188.70211 39.3464
2188.73612 50.729
2188.77014 90.2661
2188.80416 133.326
2188.83818 115.475
2188.87219 64.9627
2188.90621 36.4366
2188.94023 29.7143
2188.97425 26.6473
2189.00827 20.5546
2189.04229 17.4954
2189.07631 21.1568
2189.11033 27.6594
2189.14436 32.0386
2189.17838 67.962
2189.2124 265.273
2189.24643 476.334
2189.28045 255.088
2189.31448 82.1244
2189.3485 236.269
2189.38253 451.976
2189.41655 247.33
2189.45058 63.2023
2189.48461 45.2961
2189.51864 74.5785
2189.55266 179.255
2189.58669 458.035
2189.62072 714.747
2189.65475 533.073
2189.68878 231.157
2189.72282 90.2219
2189.75685 47.5015
2189.79088 32.757
2189.82491 26.3333
2189.85895 23.2499
2189.89298 21.8312
2189.92701 21.4933
2189.96105 21.9851
2189.99508 23.2503
2190.02912 25.2414
2190.06316 28.2068
2190.09719 33.1334
2190.13123 42.0017
2190.16527 52.9771
2190.19931 59.9923
2190.23335 68.2408
2190.26739 87.9174
2190.30143 131.072
2190.33547 197.012
2190.36951 266.866
2190.40355 396.319
2190.43759 787.042
2190.47164 1833.26
2190.50568 3340.25
2190.53972 3627.85
2190.57377 2223.43
2190.60781 965.139
2190.64186 440.517
2190.6759 244.728
2190.70995 157.17
2190.744 110.34
2190.77805 82.0524
2190.81209 63.8678
2190.84614 51.9743
2190.88019 45.2664
2190.91424 43.2395
2190.94829 40.5413
2190.98234 32.4367
2191.01639 25.1056
2191.05045 20.9505
2191.0845 18.3121
2191.11855 16.3562
2191.1526 14.7678
2191.18666 13.424
2191.22071 12.3292
2191.25477 11.4709
2191.28882 10.7124
2191.32288 9.94925
2191.35694 9.28702
2191.39099 8.77612
2191.42505 8.38717
2191.45911 8.06049
2191.49317 7.77852
2191.52723 7.64203
2191.56129 7.73362
2191.59535 8.04336
2191.62941 8.98607
2191.66347 12.2318
2191.69753 17.0672
2191.73159 18.4974
2191.76566 18.8121
2191.79972 23.5731
2191.83379 26.1664
2191.86785 19.6226
2191.90191 12.041
2191.93598 8.34963
2191.97005 6.98147
2192.00411 6.38619
2192.03818 5.95222
2192.07225 5.66465
2192.10632 5.54914
2192.14039 5.56827
2192.17445 5.70407
2192.20852 5.99174
2192.2426 6.64616
2192.27667 8.25937
2192.31074 12.7736
2192.34481 20.8287
2192.37888 27.0347
2192.41295 28.5739
2192.44703 31.8247
2192.4811 39.2195
2192.51518 35.3926
2192.54925 22.7266
2192.58333 19.3235
2192.6174 24.7692
2192.65148 34.4741
2192.68556 55.4565
2192.71964 66.597
2192.75371 57.5026
2192.78779 63.9283
2192.82187 70.1558
2192.85595 47.2853
2192.89003 22.0511
2192.92411 11.4759
2192.9582 8.50097
2192.99228 7.25623
2193.02636 6.53062
2193.06044 6.17761
2193.09453 6.04125
2193.12861 6.10575
2193.1627 6.59865
2193.19678 8.33096
2193.23087 11.8741
2193.26495 13.8563
2193.29904 10.9419
2193.33313 7.96763
2193.36722 7.05299
2193.4013 7.08069
2193.43539 7.32335
2193.46948 7.53537
2193.50357 7.99835
2193.53766 9.09281
2193.57175 11.8412
2193.60585 19.036
2193.63994 30.1152
2193.67403 33.3551
2193.70812 24.0983
2193.74222 15.8027
2193.77631 12.9363
2193.81041 12.5034
2193.8445 12.9899
2193.8786 14.0882
2193.91269 16.1963
2193.94679 21.3166
2193.98089 32.439
2194.01499 44.3719
2194.04908 43.9407
2194.08318 34.6014
2194.11728 29.9578
2194.15138 30.9893
2194.18548 34.3329
2194.21958 39.2565
2194.25369 45.9067
2194.28779 54.8082
2194.32189 66.9007
2194.35599 83.3916
2194.3901 106.754
2194.4242 142.83
2194.45831 203.529
2194.49241 313.276
2194.52652 545.215
2194.56062 1141.42
2194.59473 2493.99
2194.62884 3939.44
2194.66295 3625.79
2194.69706 2077.65
2194.73116 991.671
2194.76527 560.517
2194.79938 411.736
2194.8335 406.019
2194.86761 579.655
2194.90172 1232.79
2194.93583 2770.12
2194.96994 3987.12
2195.00406 2936.8
2195.03817 1424.76
2195.07228 962.356
2195.1064 1107.12
2195.14051 951.944
2195.17463 501.253
2195.20875 220.134
2195.24286 127.326
2195.27698 92.3376
2195.3111 73.8257
2195.34522 68.2544
2195.37934 73.7811
2195.41346 841.148
2195.44758 24942.5
2195.4817 199231
2195.51582 401567
2195.54994 242437
2195.58406 245032
2195.61819 377939
2195.65231 180734
2195.68643 22399.6
2195.72056 762.801
2195.75468 73.0893
2195.78881 52.1775
2195.82293 49.7354
2195.85706 60.5859
2195.89119 68.7789
2195.92532 60.5725
2195.95944 47.9696
2195.99357 35.3639
2196.0277 30.4234
2196.06183 39.9087
2196.09596 54.7943
2196.13009 58.742
2196.16422 72.0706
2196.19836 141.923
2196.23249 350.303
2196.26662 618.983
2196.30076 602.086
2196.33489 340.047
2196.36902 156.702
2196.40316 97.3085
2196.43729 91.3115
2196.47143 125.94
2196.50557 238.793
2196.5397 508.052
2196.57384 818.43
2196.60798 877.698
2196.64212 1052.46
2196.67626 1545.29
2196.7104 1511.81
2196.74454 845.287
2196.77868 380.611
2196.81282 256.462
2196.84696 209.065
2196.88111 136.099
2196.91525 83.553
2196.94939 59.4805
2196.98354 55.5727
2197.01768 79.094
2197.05183 137.441
2197.08597 203.425
2197.12012 201.347
2197.15426 125.396
2197.18841 74.532
2197.22256 65.4449
2197.25671 83.6055
2197.29086 165.284
2197.32501 345.805
2197.35916 456.213
2197.39331 313.794
2197.42746 154.794
2197.46161 116.175
2197.49576 171.731
2197.52991 272.834
2197.56407 283.235
2197.59822 180.443
2197.63237 106.631
2197.66653 88.7741
2197.70068 90.7777
2197.73484 120.106
2197.769 157.999
2197.80315 144.14
2197.83731 112
2197.87147 104.413
2197.90563 114.03
2197.93979 135.49
2197.97394 169.373
2198.0081 227.952
2198.04227 334.994
2198.07643 473.507
2198.11059 639.678
2198.14475 988.045
2198.17891 1915.93
2198.21308 4520.63
2198.24724 8900.02
2198.2814 10604.3
2198.31557 7146.08
2198.34973 4214.82
2198.3839 3785.6
2198.41807 3347.73
2198.45223 2043.88
2198.4864 1079.64
2198.52057 709.177
2198.55474 554.24
2198.58891 524.577
2198.62308 624.357
2198.65725 721.098
2198.69142 628.425
2198.72559 497.995
2198.75976 425.583
2198.79393 335.422
2198.8281 245.234
2198.86228 283.618
2198.89645 433.756
2198.93063 515.423
2198.9648 528.051
2198.99898 563.872
2199.03315 551.949
2199.06733 494.586
2199.10151 463.195
2199.13568 432.273
2199.16986 518.446
2199.20404 698.589
2199.23822 922.001
2199.2724 1515.69
2199.30658 2237.82
2199.34076 2081.4
2199.37494 1322.43
2199.40912 905.567
2199.4433 847.963
2199.47749 1010.69
2199.51167 1468.6
2199.54585 1744.51
2199.58004 1256.63
2199.61422 856.945
2199.64841 884.447
2199.6826 799.02
2199.71678 610.417
2199.75097 681.598
2199.78516 954.405
2199.81934 1230.89
2199.85353 1579.07
2199.88772 1615.48
2199.92191 1764.71
2199.9561 2570.67
2199.99029 2919.96
2200.02448 2236.28
2200.05868 1713.62
2200.09287 1467.61
2200.12706 1492.92
2200.16126 2130.02
2200.19545 2417.8
2200.22964 1799
2200.26384 1497.14
2200.29803 1556.5
2200.33223 1591.12
2200.36643 1722.6
2200.40062 1846.27
2200.43482 1988.12
2200.46902 1725.58
2200.50322 1793.3
2200.53742 2468.68
2200.57162 2417.36
2200.60582 1404.1
2200.64002 689.926
2200.67422 635.612
2200.70842 1125.56
2200.74263 1630.69
2200.77683 1277.78
2200.81103 669.585
2200.84524 302.623
2200.87944 164.396
2200.91365 153.545
2200.94785 189.511
2200.98206 218.294
2201.01626 234.991
2201.05047 269.408
2201.08468 386.878
2201.11889 563.556
2201.1531 841.274
2201.18731 950.714
2201.22152 649.085
2201.25573 335.023
2201.28994 192.97
2201.32415 138.009
2201.35836 140.172
2201.39257 220.737
2201.42679 371.005
2201.461 491.77
2201.49522 559.218
2201.52943 710.357
2201.56365 821.387
2201.59786 760.378
2201.63208 695.094
2201.66629 588.99
2201.70051 608.439
2201.73473 703.207
2201.76895 677.817
2201.80317 782.567
2201.83739 943.02
2201.87161 963.25
2201.90583 857.708
2201.94005 746.741
2201.97427 568.818
2202.00849 380.941
2202.04271 347.198
2202.07694 422.361
2202.11116 595.111
2202.14539 999.994
2202.17961 1404.71
2202.21384 1565.31
2202.24806 1455.06
2202.28229 1090.01
2202.31652 807.874
2202.35074 694.775
2202.38497 663.841
2202.4192 647.096
2202.45343 760.733
2202.48766 874.023
2202.52189 623.021
2202.55612 352.959
2202.59035 313.525
2202.62458 505.564
2202.65881 822.422
2202.69305 989.044
2202.72728 980.419
2202.76151 926.509
2202.79575 730.911
2202.82998 476.101
2202.86422 324.471
2202.89846 264.016
2202.93269 302.666
2202.96693 432.502
2203.00117 643.761
2203.0354 887.497
2203.06964 786.241
2203.10388 446.34
2203.13812 303.528
2203.17236 331.035
2203.2066 387.793
2203.24084 478.642
2203.27509 465.977
2203.30933 417.127
2203.34357 467.097
2203.37782 463.664
2203.41206 346.549
2203.4463 236.589
2203.48055 218.124
2203.51479 232.068
2203.54904 215.263
2203.58329 170.264
2203.61753 159.126
2203.65178 233.235
2203.68603 320.68
2203.72028 246.193
2203.75453 136.784
2203.78878 100.171
2203.82303 110.1
2203.85728 147.129
2203.89153 221.72
2203.92578 393.148
2203.96004 864.111
2203.99429 1996.36
2204.02854 3201.96
2204.0628 2828.91
2204.09705 1508.16
2204.13131 663.614
2204.16556 350.859
2204.19982 237.576
2204.23407 198.391
2204.26833 181.882
2204.30259 177.905
2204.33685 236.702
2204.37111 357.277
2204.40537 445.623
2204.43963 489.093
2204.47389 549.715
2204.50815 649.621
2204.54241 607.486
2204.57667 455.969
2204.61093 419.714
2204.6452 517.109
2204.67946 619.171
2204.71372 701.1
2204.74799 840.525
2204.78225 1258
2204.81652 2327.66
2204.85079 5287.4
2204.88505 9396.45
2204.91932 9246.5
2204.95359 5581.29
2204.98786 3053.39
2205.02213 1730.55
2205.0564 1070.42
2205.09067 810.042
2205.12494 1156.95
2205.15921 15407.3
2205.19348 118976
2205.22775 239306
2205.26202 123775
2205.2963 17702.4
2205.33057 1183.59
2205.36485 706.286
2205.39912 800.335
2205.4334 505.594
2205.46767 268.066
2205.50195 238.919
2205.53623 219.481
2205.5705 211.815
2205.60478 247.458
2205.63906 288.001
2205.67334 218.148
2205.70762 136.478
2205.7419 118.724
2205.77618 123.752
2205.81046 132.895
2205.84474 184.645
2205.87903 363.088
2205.91331 502.142
2205.94759 348.615
2205.98188 158.329
2206.01616 85.7406
2206.05044 102.914
2206.08473 146.552
2206.11902 125.924
2206.1533 131.079
2206.18759 136.117
2206.22188 81.8583
2206.25617 38.3991
2206.29045 26.0497
2206.32474 25.3196
2206.35903 31.69
2206.39332 55.3421
2206.42761 107.788
2206.46191 142.795
2206.4962 107.026
2206.53049 74.7419
2206.56478 79.9846
2206.59908 105.893
2206.63337 158.562
2206.66767 308.749
2206.70196 822.678
2206.73626 2162.79
2206.77055 3340.55
2206.80485 2413.37
2206.83915 1036.67
2206.87344 431.107
2206.90774 227.247
2206.94204 143.42
2206.97634 101.42
2207.01064 90.4675
2207.04494 97.9272
2207.07924 99.9374
2207.11354 99.9428
2207.14785 101.011
2207.18215 141.383
2207.21645 299.668
2207.25076 648.747
2207.28506 901.45
2207.31936 657.625
2207.35367 327.832
2207.38797 199.196
2207.42228 211.54
2207.45659 277.84
2207.4909 333.464
2207.5252 548.525
2207.55951 1074.83
2207.59382 1527.09
2207.62813 1362.57
2207.66244 808.235
2207.69675 368.968
2207.73106 169.099
2207.76537 95.2261
2207.79969 63.9689
2207.834 49.9868
2207.86831 49.9473
2207.90263 61.0278
2207.93694 61.8907
2207.97125 45.5999
2208.00557 42.3037
2208.03989 72.3636
2208.0742 109.85
2208.10852 96.3305
2208.14284 73.6232
2208.17715 72.4049
2208.21147 60.0348
2208.24579 45.9729
2208.28011 38.2836
2208.31443 26.3698
2208.34875 15.6902
2208.38307 11.261
2208.4174 10.1565
2208.45172 9.86689
2208.48604 10.1492
2208.52036 11.6597
2208.55469 15.991
2208.58901 26.224
2208.62334 47.4299
2208.65766 102.067
2208.69199 182.329
2208.72632 181.343
2208.76064 105.615
2208.79497 70.9984
2208.8293 71.2321
2208.86363 47.004
2208.89796 23.0472
2208.93229 14.3692
2208.96662 12.0868
2209.00095 12.0939
2209.03528 13.9962
2209.06961 19.3501
2209.10394 30.984
2209.13828 47.1924
2209.17261 76.9768
2209.20694 173.712
2209.24128 306.718
2209.27561 297.691
2209.30995 163.303
2209.34429 67.4816
2209.37862 35.6022
2209.41296 31.3496
2209.4473 33.7671
2209.48164 31.7194
2209.51597 35.942
2209.55031 46.9995
2209.58465 68.081
2209.61899 91.5571
2209.65334 73.4727
2209.68768 40.8548
2209.72202 27.0192
2209.75636 26.5729
2209.7907 23.4911
2209.82505 19.3003
2209.85939 18.2249
2209.89374 19.604
2209.92808 21.5998
2209.96243 26.6549
2209.99677 30.9219
2210.03112 30.2377
2210.06547 34.5911
2210.09982 43.5976
2210.13417 49.3692
2210.16851 70.1057
2210.20286 115.737
2210.23721 166.813
2210.27156 217.902
2210.30592 373.961
2210.34027 913.698
2210.37462 1654.74
2210.40897 1609.9
2210.44333 849.353
2210.47768 328.719
2210.51203 160.499
2210.54639 94.98
2210.58074 63.3827
2210.6151 50.0325
2210.64946 37.8513
2210.68381 28.0057
2210.71817 22.5846
2210.75253 20.1698
2210.78689 20.4388
2210.82125 24.465
2210.85561 29.1894
2210.88997 28.8982
2210.92433 31.277
2210.95869 49.6373
2210.99305 90.7313
2211.02741 132.477
2211.06178 158.862
2211.09614 243.628
2211.1305 435.23
2211.16487 551.454
2211.19923 571.89
2211.2336 706.801
2211.26796 651.405
2211.30233 348.971
2211.3367 154.574
2211.37107 109.587
2211.40543 88.5981
2211.4398 56.2235
2211.47417 36.8267
2211.50854 27.8874
2211.54291 25.3578
2211.57728 33.8352
2211.61165 44.1621
2211.64603 47.578
2211.6804 59.348
2211.71477 60.3735
2211.74914 42.6258
2211.78352 30.8952
2211.81789 26.5445
2211.85227 22.52
2211.88664 23.4773
2211.92102 44.0223
2211.9554 73.4028
2211.98977 70.061
2212.02415 53.748
2212.05853 46.2731
2212.09291 38.7313
2212.12729 44.8137
2212.16167 58.641
2212.19605 57.8373
2212.23043 39.1175
2212.26481 21.9372
2212.29919 20.6159
2212.33358 35.6455
2212.36796 473.059
2212.40234 14093.9
2212.43673 116842
2212.47111 267901
2212.5055 203029
2212.53988 79165.4
2212.57427 163063
2212.60866 314012
2212.64304 156996
2212.67743 19814.8
2212.71182 867.733
2212.74621 174.584
2212.7806 90.0727
2212.81499 77.3636
2212.84938 76.9339
2212.88377 67.6049
2212.91816 43.8217
2212.95256 28.8201
2212.98695 32.1909
2213.02134 32.4423
2213.05574 19.8938
2213.09013 11.1923
2213.12453 9.70465
2213.15892 10.8678
2213.19332 15.6447
2213.22771 25.1427
2213.26211 35.2094
2213.29651 50.2108
2213.33091 63.1125
2213.3653 53.131
2213.3997 39.221
2213.4341 52.5565
2213.4685 75.0333
2213.5029 65.4616
2213.53731 55.9671
2213.57171 63.439
2213.60611 68.7545
2213.64051 70.6409
2213.67492 91.3446
2213.70932 103.273
2213.74373 89.8523
2213.77813 100.225
2213.81254 102.831
2213.84694 77.9999
2213.88135 85.6759
2213.91576 202.048
2213.95016 372.728
2213.98457 344.789
2214.01898 175.787
2214.05339 95.3407
2214.0878 116.194
2214.12221 129.066
2214.15662 82.879
2214.19103 57.645
2214.22545 68.7209
2214.25986 76.2568
2214.29427 92.5846
2214.32868 148.711
2214.3631 186.404
2214.39751 122.343
2214.43193 58.7764
2214.46634 39.7145
2214.50076 42.6347
2214.53518 58.3051
2214.56959 75.5044
2214.60401 83.8167
2214.63843 96.8684
2214.67285 139.873
2214.70727 250.787
2214.74169 551.649
2214.77611 1178.75
2214.81053 1694.8
2214.84495 1480.61
2214.87938 1422.72
2214.9138 2223.49
2214.94822 2522.82
2214.98265 1376.83
2215.01707 471.435
2215.05149 208.852
2215.08592 123.08
2215.12035 83.3627
2215.15477 71.8592
2215.1892 74.7604
2215.22363 72.8983
2215.25806 53.5467
2215.29248 38.82
2215.32691 41.1015
2215.36134 62.8685
2215.39577 90.9579
2215.4302 88.3558
2215.46463 65.2779
2215.49907 54.7253
2215.5335 53.8148
2215.56793 54.5228
2215.60237 61.5077
2215.6368 83.125
2215.67123 128.098
2215.70567 161.734
2215.7401 164.524
2215.77454 178.057
2215.80898 215.299
2215.84341 319.488
2215.87785 648.458
2215.91229 1878.76
2215.94673 5137.63
2215.98117 7922.89
2216.01561 5794.03
2216.05005 2806.92
2216.08449 1278.51
2216.11893 594.961
2216.15337 328.332
2216.18782 236.209
2216.22226 221.812
2216.2567 283.306
2216.29115 508.571
2216.32559 915.885
2216.36004 1099.85
2216.39448 767.037
2216.42893 496.517
2216.46338 661.556
2216.49782 1074.68
2216.53227 1125.88
2216.56672 794.922
2216.60117 704.498
2216.63562 1265.27
2216.67007 1906.44
2216.70452 1450.71
2216.73897 642.81
2216.77342 251.033
2216.80787 133.677
2216.84233 90.9698
2216.87678 66.3298
2216.91123 61.932
2216.94569 71.2737
2216.98014 65.553
2217.0146 47.9958
2217.04905 34.5836
2217.08351 26.2384
2217.11797 21.9945
2217.15242 22.7314
2217.18688 26.3538
2217.22134 31.9069
2217.2558 41.3802
2217.29026 52.5474
2217.32472 93.6849
2217.35918 143.463
2217.39364 113.49
2217.4281 59.3752
2217.46257 38.7405
2217.49703 37.2497
2217.53149 48.3053
2217.56596 66.035
2217.60042 90.2483
2217.63489 105.533
2217.66935 76.0373
2217.70382 53.7879
2217.73828 65.0771
2217.77275 121.403
2217.80722 193.032
2217.84169 187.018
2217.87616 121.551
2217.91063 117.109
2217.9451 224.707
2217.97957 370.069
2218.01404 385.361
2218.04851 292.4
2218.08298 234.908
2218.11745 219.277
2218.15193 201.621
2218.1864 148.713
2218.22087 121.589
2218.25535 188.775
2218.28982 437.687
2218.3243 663.342
2218.35878 408.932
2218.39325 146.512
2218.42773 110.369
2218.46221 203.437
2218.49669 301.725
2218.53116 258.527
2218.56564 153.775
2218.60012 109.734
2218.6346 115.065
2218.66909 147.01
2218.70357 285.447
2218.73805 458.253
2218.77253 383.663
2218.80702 174.908
2218.8415 65.1752
2218.87598 41.7093
2218.91047 44.9072
2218.94495 63.4117
2218.97944 75.8353
2219.01393 53.1786
2219.04841 28.7535
2219.0829 34.0463
2219.11739 125.037
2219.15188 233.385
2219.18637 144.16
2219.22086 56.8712
2219.25535 42.4151
2219.28984 42.5307
2219.32433 55.5989
2219.35882 93.5894
2219.39331 119.546
2219.42781 101.701
2219.4623 83.6726
2219.49679 72.3723
2219.53129 88.1009
2219.56578 119.464
2219.60028 128.826
2219.63477 124.014
2219.66927 151.736
2219.70377 268.817
2219.73827 481.579
2219.77276 609.29
2219.80726 462.777
2219.84176 262.099
2219.87626 188.767
2219.91076 179.889
2219.94526 140.231
2219.97976 125.336
2220.01427 218.5
2220.04877 332.136
2220.08327 248.875
2220.11778 114.912
2220.15228 58.9057
2220.18678 52.9436
2220.22129 63.4467
2220.2558 51.6595
2220.2903 35.3191
2220.32481 34.142
2220.35932 43.0784
2220.39382 55.0141
2220.42833 85.8313
2220.46284 114.783
2220.49735 105.473
2220.53186 140.657
2220.56637 309.474
2220.60088 570.807
2220.63539 709.27
2220.66991 574.815
2220.70442 307.247
2220.73893 218.813
2220.77345 275.994
2220.80796 255.386
2220.84248 175.516
2220.87699 102.695
2220.91151 61.924
2220.94602 60.2387
2220.98054 101.817
2221.01506 155.94
2221.04958 141.683
2221.08409 85.3163
2221.11861 54.6233
2221.15313 52.1954
2221.18765 63.3161
2221.22217 81.9369
2221.2567 113.383
2221.29122 189.316
2221.32574 386.952
2221.36026 948.87
2221.39479 1881.17
2221.42931 2128.07
2221.46384 1294.76
2221.49836 719.781
2221.53289 944.527
2221.56741 1620.61
2221.60194 1839.86
2221.63647 1244.14
2221.67099 560.35
2221.70552 239.408
2221.74005 145.093
2221.77458 131.787
2221.80911 155.203
2221.84364 202.966
2221.87817 381.78
2221.9127 884.371
2221.94723 1343.24
2221.98177 1018.88
2222.0163 477.29
2222.05083 234.021
2222.08537 189.179
2222.1199 170.916
2222.15444 138.81
2222.18897 128.848
2222.22351 120.085
2222.25805 103.832
2222.29258 81.0491
2222.32712 85.07
2222.36166 100.793
2222.3962 78.3133
2222.43074 58.7612
2222.46528 65.5213
2222.49982 94.1739
2222.53436 159.538
2222.5689 259.344
2222.60345 407.975
2222.63799 578.795
2222.67253 601.817
2222.70708 386.226
2222.74162 190.736
2222.77617 116.268
2222.81071 92.6919
2222.84526 89.2303
2222.8798 119.004
2222.91435 237.161
2222.9489 462.252
2222.98345 596.45
2223.01799 462.508
2223.05254 294.743
2223.08709 223.332
2223.12164 166.857
2223.15619 120.573
2223.19075 71.016
2223.2253 37.6299
2223.25985 25.9368
2223.2944 23.1327
2223.32896 25.6394
2223.36351 39.7354
2223.39807 84.096
2223.43262 152.035
2223.46718 192.893
2223.50173 177.7
2223.53629 100.174
2223.57085 55.0744
2223.6054 72.5458
2223.63996 164.123
2223.67452 302.865
2223.70908 372.844
2223.74364 365.242
2223.7782 300.241
2223.81276 228.974
2223.84732 180.585
2223.88189 176.078
2223.91645 198.457
2223.95101 259.69
2223.98558 307.814
2224.02014 307.734
2224.0547 262.399
2224.08927 190.841
2224.12384 223.642
2224.1584 320.539
2224.19297 275.025
2224.22754 143.168
2224.2621 65.1701
2224.29667 35.873
2224.33124 25.4186
2224.36581 25.6671
2224.40038 35.1735
2224.43495 43.5137
2224.46952 38.7149
2224.5041 48.456
2224.53867 108.668
2224.57324 188.097
2224.60781 170.133
2224.64239 112.198
2224.67696 535.658
2224.71154 10900
2224.74611 80210.8
2224.78069 158546
2224.81527 81673.3
2224.84984 11650.5
2224.88442 642.577
2224.919 138.929
2224.95358 126.099
2224.98816 126.39
2225.02274 143.518
2225.05732 177.616
2225.0919 238.65
2225.12648 567.404
2225.16106 2018.06
2225.19564 4311.24
2225.23023 4211.95
2225.26481 1914.38
2225.2994 535.354
2225.33398 238.904
2225.36857 204.843
2225.40315 192.426
2225.43774 204.909
2225.47232 193.902
2225.50691 129.04
2225.5415 75.5348
2225.57609 49.2899
2225.61068 42.4458
2225.64527 52.6881
2225.67986 91.8873
2225.71445 263.422
2225.74904 929.596
2225.78363 1672.56
2225.81822 1174.55
2225.85281 477.064
2225.88741 295.331
2225.922 263.041
2225.9566 180.224
2225.99119 125.035
2226.02579 167.626
2226.06038 269.737
2226.09498 272.251
2226.12958 157.42
2226.16417 73.5796
2226.19877 48.2299
2226.23337 45.9474
2226.26797 57.0759
2226.30257 83.0308
2226.33717 140.256
2226.37177 298.934
2226.40637 470.255
2226.44097 404.491
2226.47558 294.098
2226.51018 319.566
2226.54478 591.552
2226.57939 1372.65
2226.61399 2326.41
2226.6486 2235.03
2226.6832 1244.11
2226.71781 521.056
2226.75241 286.606
2226.78702 310.037
2226.82163 470.582
2226.85624 564.54
2226.89085 438.012
2226.92546 244.292
2226.96007 151.61
2226.99468 151.092
2227.02929 249.566
2227.0639 578.529
2227.09851 1049.71
2227.13312 1361.67
2227.16774 1864.11
2227.20235 2373.18
2227.23697 1953.54
2227.27158 1031.22
2227.3062 510.138
2227.34081 284.16
2227.37543 149.851
2227.41004 88.235
2227.44466 67.3795
2227.47928 68.7165
2227.5139 107.342
2227.54852 220.511
2227.58314 327.777
2227.61776 282.149
2227.65238 261.973
2227.687 299.283
2227.72162 228.09
2227.75624 173.45
2227.79087 305.699
2227.82549 554.021
2227.86011 566.189
2227.89474 333.94
2227.92936 158.97
2227.96399 103.733
2227.99862 115.865
2228.03324 185.498
2228.06787 255.089
2228.1025 275.601
2228.13713 326.306
2228.17175 297.622
2228.20638 196.44
2228.24101 185.616
2228.27564 279.847
2228.31027 366.943
2228.34491 345.206
2228.37954 324.177
2228.41417 389.072
2228.4488 408.759
2228.48344 297.788
2228.51807 176.518
2228.55271 87.686
2228.58734 44.2506
2228.62198 36.0944
2228.65661 46.1297
2228.69125 63.2665
2228.72589 94.9641
2228.76053 165.41
2228.79516 191.577
2228.8298 118.057
2228.86444 59.4567
2228.89908 39.1354
2228.93372 34.7538
2228.96836 45.8931
2229.00301 93.7608
2229.03765 255.121
2229.07229 511.254
2229.10693 547.251
2229.14158 303.192
2229.17622 140.524
2229.21087 143.151
2229.24551 214.013
2229.28016 260.496
2229.31481 232.348
2229.34945 121.681
2229.3841 47.5464
2229.41875 29.7987
2229.4534 35.776
2229.48805 76.8276
2229.5227 176.474
2229.55735 238.899
2229.592 148.4
2229.62665 56.6593
2229.6613 25.7987
2229.69595 17.1839
2229.73061 14.0037
2229.76526 13.1316
2229.79991 14.3468
2229.83457 20.0617
2229.86922 36.5116
2229.90388 60.4534
2229.93854 80.3377
2229.97319 113.387
2230.00785 162.433
2230.04251 176.745
2230.07717 134.04
2230.11182 104.381
2230.14648 78.6686
2230.18114 58.1879
2230.2158 58.9818
2230.25047 91.7975
2230.28513 191.48
2230.31979 361.861
2230.35445 453.263
2230.38912 306.483
2230.42378 138.648
2230.45844 80.1162
2230.49311 70.609
2230.52777 80.8732
2230.56244 144.993
2230.59711 261.061
2230.63177 320.256
2230.66644 320.7
2230.70111 510.034
2230.73578 853.893
2230.77045 857.635
2230.80512 511.14
2230.83979 252.07
2230.87446 137.374
2230.90913 101.214
2230.9438 145.076
2230.97847 288.347
2231.01315 404.868
2231.04782 308.246
2231.08249 545.675
2231.11717 11816.4
2231.15184 93208.5
2231.18652 186110
2231.2212 93119.7
2231.25587 12240.8
2231.29055 12478.3
2231.32523 93861.1
2231.35991 187156
2231.39458 93763.6
2231.42926 12054.7
2231.46394 712.359
2231.49862 415.645
2231.53331 849
2231.56799 2182.78
2231.60267 3824.88
2231.63735 3512.17
2231.67203 1812.14
2231.70672 733.472
2231.7414 439.632
2231.77609 502.654
2231.81077 644.651
2231.84546 529.142
2231.88015 307.588
2231.91483 239.664
2231.94952 244.247
2231.98421 193.407
2232.0189 204.349
2232.05359 261.021
2232.08827 215.061
2232.12297 148.318
2232.15766 129.315
2232.19235 157.469
2232.22704 253.974
2232.26173 546.375
2232.29642 1401.5
2232.33112 2631.84
2232.36581 2929.66
2232.40051 2423.79
2232.4352 2001.52
2232.4699 1648
2232.50459 1490.67
2232.53929 1038.72
2232.57399 533.638
2232.60868 282.39
2232.64338 181.262
2232.67808 138.449
2232.71278 122.816
2232.74748 138.387
2232.78218 216.52
2232.81688 432.285
2232.85158 666.179
2232.88629 577.871
2232.92099 296.527
2232.95569 150.088
2232.9904 184.595
2233.0251 341.021
2233.0598 462.909
2233.09451 447.094
2233.12922 403.576
2233.16392 367.399
2233.19863 291.783
2233.23334 169.289
2233.26804 83.7651
2233.30275 53.414
2233.33746 49.6184
2233.37217 60.8683
2233.40688 76.7361
2233.44159 81.3862
2233.4763 86.3913
2233.51101 116.255
2233.54573 215.447
2233.58044 581.104
2233.61515 1675.43
2233.64987 3126.76
2233.68458 3047.03
2233.7193 1527.11
2233.75401 555.34
2233.78873 343.038
2233.82344 318.423
2233.85816 254.552
2233.89288 201.933
2233.9276 281.867
2233.96232 417.045
2233.99704 353.959
2234.03176 192.589
2234.06648 100.962
2234.1012 74.2633
2234.13592 74.8202
2234.17064 87.6367
2234.20536 117.875
2234.24009 202.217
2234.27481 365.828
2234.30953 565.836
2234.34426 632.938
2234.37898 455.919
2234.41371 239.849
2234.44844 142.04
2234.48316 124.054
2234.51789 128.094
2234.55262 172.265
2234.58735 358.346
2234.62208 726.683
2234.65681 897.293
2234.69154 586.301
2234.72627 246.814
2234.761 104.141
2234.79573 62.8512
2234.83046 57.845
2234.86519 62.5291
2234.89993 55.6767
2234.93466 49.2109
2234.9694 56.0757
2235.00413 68.4109
2235.03887 88.8133
2235.0736 171.059
2235.10834 450.465
2235.14308 978.583
2235.17781 1255.93
2235.21255 911.013
2235.24729 548.009
2235.28203 306.977
2235.31677 204.635
2235.35151 213.563
2235.38625 186.801
2235.42099 135.726
2235.45573 138.976
2235.49048 149.947
2235.52522 108.406
2235.55996 85.2032
2235.59471 111.812
2235.62945 146.149
2235.6642 159.03
2235.69894 201.567
2235.73369 450.88
2235.76844 1022.99
2235.80318 1316.11
2235.83793 778.619
2235.87268 325.141
2235.90743 260.215
2235.94218 464.677
2235.97693 805.161
2236.01168 890.603
2236.04643 981.074
2236.08118 2077.64
2236.11594 3162.83
2236.15069 1877.92
2236.18544 564.114
2236.2202 221.252
2236.25495 212.634
2236.2897 391.59
2236.32446 746.795
2236.35922 1041.1
2236.39397 1027.3
2236.42873 701.015
2236.46349 555.216
2236.49825 946.883
2236.533 1663.75
2236.56776 1977.02
2236.60252 1695.68
2236.63728 926.64
2236.67204 398.656
2236.70681 248.922
2236.74157 224.043
2236.77633 254.173
2236.81109 358.91
2236.84586 426.535
2236.88062 315.72
2236.91539 255.31
2236.95015 301.612
2236.98492 352.7
2237.01968 401.808
2237.05445 346.871
2237.08922 225.356
2237.12399 132.819
2237.15875 113.515
2237.19352 138.119
2237.22829 149.106
2237.26306 189.552
2237.29783 304.924
2237.3326 395.224
2237.36738 436.709
2237.40215 700.408
2237.43692 1391.54
2237.47169 1878.38
2237.50647 1524.2
2237.54124 1119.74
2237.57602 890.062
2237.61079 798.821
2237.64557 853.712
2237.68035 638.018
2237.71512 325.75
2237.7499 182.607
2237.78468 171.754
2237.81946 281.88
2237.85424 699.488
2237.88902 1411.22
2237.9238 1673.07
2237.95858 1382.61
2237.99336 1209.01
2238.02814 919.338
2238.06292 785.365
2238.09771 932.699
2238.13249 878.369
2238.16727 541.904
2238.20206 303.656
2238.23684 289.181
2238.27163 506.561
2238.30642 839.667
2238.3412 810.037
2238.37599 428.534
2238.41078 174.707
2238.44557 104.982
2238.48036 87.827
2238.51514 67.6775
2238.54994 53.2123
2238.58473 55.0943
2238.61952 62.824
2238.65431 79.1834
2238.6891 142.14
2238.72389 311.054
2238.75869 440.952
2238.79348 308.127
2238.82828 143.158
2238.86307 71.7606
2238.89787 54.2339
2238.93266 57.0903
2238.96746 60.7454
2239.00226 64.9637
2239.03705 92.682
2239.07185 173.935
2239.10665 258
2239.14145 245.695
2239.17625 177.482
2239.21105 186.908
2239.24585 273.282
2239.28065 312.822
2239.31545 248.558
2239.35026 205.838
2239.38506 223.421
2239.41986 193.233
2239.45467 130.951
2239.48947 89.1191
2239.52428 90.9338
2239.55908 120.349
2239.59389 167.662
2239.6287 311.591
2239.6635 608.888
2239.69831 1154.88
2239.73312 1655.75
2239.76793 1233.47
2239.80274 530.876
2239.83755 197.055
2239.87236 99.6684
2239.90717 68.3399
2239.94198 56.0968
2239.97679 52.5149
2240.01161 54.8012
2240.04642 62.9733
2240.08123 79.812
2240.11605 114.54
2240.15086 201.318
2240.18568 455.91
2240.22049 1070.19
2240.25531 2131.32
2240.29013 3347.34
2240.32495 3486.19
2240.35976 1939.45
2240.39458 699.851
2240.4294 305.533
2240.46422 250.515
2240.49904 423.521
2240.53386 780.291
2240.56868 895.397
2240.60351 615.803
2240.63833 420.449
2240.67315 369.27
2240.70798 373.696
2240.7428 416.51
2240.77762 348.368
2240.81245 261.99
2240.84728 212.417
2240.8821 154.934
2240.91693 147.736
2240.95176 242.073
2240.98658 475.358
2241.02141 730.584
2241.05624 693.835
2241.09107 488.568
2241.1259 463.874
2241.16073 610.394
2241.19556 851.325
2241.2304 1076.95
2241.26523 825.617
2241.30006 467.229
2241.33489 363.881
2241.36973 586.438
2241.40456 1108.79
2241.4394 1587.44
2241.47423 1815.9
2241.50907 1964.71
2241.54391 2122.73
2241.57874 1459.19
2241.61358 827.859
2241.64842 915.063
2241.68326 1163.17
2241.7181 833.261
2241.75294 401.933
2241.78778 214.386
2241.82262 179.719
2241.85746 211.335
2241.8923 216.255
2241.92714 186.786
2241.96199 140.727
2241.99683 103.739
2242.03167 76.1035
2242.06652 67.2484
2242.10136 79.5802
2242.13621 96.6527
2242.17106 134.148
2242.2059 156.413
2242.24075 125.098
2242.2756 105.936
2242.31045 138.351
2242.3453 306.872
2242.38015 793.621
2242.415 1317.52
2242.44985 1178.56
2242.4847 731.325
2242.51955 349.036
2242.5544 160.011
2242.58925 111.188
2242.62411 109.983
2242.65896 130.192
2242.69382 172.637
2242.72867 308.904
2242.76353 523.16
2242.79838 612.776
2242.83324 746.53
2242.8681 1014.21
2242.90296 1196.86
2242.93781 1158.14
2242.97267 846.97
2243.00753 420.308
2243.04239 173.086
2243.07725 92.8234
2243.11211 66.7109
2243.14697 60.2186
2243.18184 71.8662
2243.2167 96.4527
2243.25156 123.394
2243.28643 196.438
2243.32129 409.471
2243.35615 678.751
2243.39102 662.378
2243.42589 430.378
2243.46075 383.166
2243.49562 546.486
2243.53049 658.116
2243.56535 642.379
2243.60022 932.309
2243.63509 1402.21
2243.66996 1276.62
2243.70483 982.328
2243.7397 1187.3
2243.77457 1563.47
2243.80945 1707.9
2243.84432 1369.49
2243.87919 807.646
2243.91406 651.795
2243.94894 1241.08
2243.98381 2624.82
2244.01869 3596.27
2244.05356 2857.64
2244.08844 1501.58
2244.12332 766.774
2244.15819 612.896
2244.19307 644.639
2244.22795 829.571
2244.26283 1768.73
2244.29771 3309.06
2244.33259 3453.72
2244.36747 2005.25
2244.40235 838.862
2244.43723 373.61
2244.47211 204.933
2244.507 141.467
2244.54188 115.316
2244.57676 95.9296
2244.61165 82.8413
2244.64653 79.163
2244.68142 78.6052
2244.7163 78.0717
2244.75119 60.6541
2244.78608 38.7252
2244.82096 27.8699
2244.85585 24.7828
2244.89074 25.577
2244.92563 31.7491
2244.96052 41.5891
2244.99541 49.5746
2245.0303 63.2355
2245.06519 95.3084
2245.10008 195.851
2245.13498 459.473
2245.16987 752.825
2245.20476 673.564
2245.23966 356.648
2245.27455 159.864
2245.30945 90.0503
2245.34434 77.4317
2245.37924 103.059
2245.41414 158.222
2245.44903 224.391
2245.48393 270.539
2245.51883 289.638
2245.55373 316.894
2245.58863 402.96
2245.62353 441.121
2245.65843 365.06
2245.69333 241.807
2245.72823 167.444
2245.76313 171.675
2245.79804 255.327
2245.83294 434.98
2245.86784 705.832
2245.90275 1314.89
2245.93765 5463.96
2245.97256 23729.9
2246.00746 48230.2
2246.04237 48316
2246.07728 35089.8
2246.11218 13952.5
2246.14709 2728.42
2246.182 1084.09
2246.21691 1199.38
2246.25182 1369.79
2246.28673 1132.35
2246.32164 1029.03
2246.35655 1042.63
2246.39146 719.051
2246.42638 522.758
2246.46129 850.196
2246.4962 1503.62
2246.53112 1600.14
2246.56603 1023.22
2246.60095 722.817
2246.63586 800.172
2246.67078 1021.6
2246.7057 1478.7
2246.74061 1474.46
2246.77553 1080.6
2246.81045 1231.3
2246.84537 1646.02
2246.88029 1864.27
2246.91521 1613.35
2246.95013 991.467
2246.98505 720.283
2247.01997 745.405
2247.05489 1018.06
2247.08982 2228.11
2247.12474 4327.36
2247.15966 5044.79
2247.19459 4286.02
2247.22951 4901.23
2247.26444 5750.62
2247.29937 4396.68
2247.33429 2537.98
2247.36922 1226.81
2247.40415 617.363
2247.43908 594.212
2247.474 1036.66
2247.50893 1465.16
2247.54386 1168.62
2247.57879 728.983
2247.61372 506.205
2247.64866 350.375
2247.68359 268.334
2247.71852 211.502
2247.75345 153.362
2247.78839 107.727
2247.82332 91.5866
2247.85826 100.59
2247.89319 153.791
2247.92813 337.723
2247.96306 592.577
2247.998 623.396
2248.03294 492.038
2248.06788 456.782
2248.10281 416.967
2248.13775 237.031
2248.17269 105.755
2248.20763 76.6138
2248.24257 113.224
2248.27752 212.039
2248.31246 300.638
2248.3474 338.239
2248.38234 364.981
2248.41729 276.98
2248.45223 202.353
2248.48717 250.278
2248.52212 290.96
2248.55707 214.711
2248.59201 138
2248.62696 129.417
2248.66191 194.678
2248.69685 290.612
2248.7318 346.125
2248.76675 355.142
2248.8017 339.216
2248.83665 340.518
2248.8716 404.98
2248.90655 516.445
2248.9415 531.705
2248.97645 428.508
2249.01141 353.493
2249.04636 380.517
2249.08131 497.944
2249.11627 711.133
2249.15122 1017.15
2249.18618 1042.15
2249.22113 601.578
2249.25609 255.28
2249.29105 176.984
2249.32601 250.346
2249.36096 333.083
2249.39592 277.539
2249.43088 207.997
2249.46584 185.899
2249.5008 153.815
2249.53576 143.33
2249.57072 190.736
2249.60569 391.973
2249.64065 944.903
2249.67561 1603
2249.71057 1835.16
2249.74554 2085.49
2249.7805 1875.98
2249.81547 1038.7
2249.85043 455.694
2249.8854 254.217
2249.92037 195.218
2249.95533 184.167
2249.9903 156.17
