# Obtained using Skycalc tool from ESO webpage
# Not including telescope emissivity
Wave[nm] Radiance[photons/s/m**2/micron/arsec**2]
1950 3641.53
1950.05572 1573.68
1950.11143 1432.57
1950.16715 1177.73
1950.22287 518.082
1950.27859 394.677
1950.33431 459.93
1950.39004 1056.34
1950.44577 2891.28
1950.50149 3294.68
1950.55722 1151.7
1950.61295 604.002
1950.66869 761.628
1950.72442 1278.02
1950.78016 1732.25
1950.83589 1633.69
1950.89163 2774.82
1950.94737 3761.39
1951.00312 2016.34
1951.05886 1183.11
1951.1146 426.169
1951.17035 357.095
1951.2261 451.904
1951.28185 1592.05
1951.3376 2434.98
1951.39335 1672.37
1951.44911 343.461
1951.50487 310.746
1951.56062 555.438
1951.61638 415.364
1951.67215 548.31
1951.72791 1783.34
1951.78367 53187.9
1951.83944 625.957
1951.89521 70784.5
1951.95098 546.759
1952.00675 630.445
1952.06252 925.152
1952.11829 1466.65
1952.17407 3830.43
1952.22985 3818.71
1952.28562 1126.37
1952.3414 733.921
1952.39719 958.227
1952.45297 657.619
1952.50876 1104.96
1952.56454 2907.34
1952.62033 3648.1
1952.67612 3578.14
1952.73191 1544.66
1952.78771 721.225
1952.8435 6326.4
1952.8993 6500.74
1952.95509 536.139
1953.01089 760.328
1953.06669 1461.15
1953.1225 3284.56
1953.1783 3814.53
1953.23411 4894.81
1953.28992 5925.21
1953.34572 6479.79
1953.40153 4225.42
1953.45735 1857.34
1953.51316 1293.98
1953.56898 1787.75
1953.62479 3972.83
1953.68061 1879.59
1953.73643 1017.77
1953.79225 920.026
1953.84808 559.539
1953.9039 526.004
1953.95973 602.067
1954.01556 1033.55
1954.07139 3358.08
1954.12722 4162.8
1954.18305 1867.11
1954.23889 1972.64
1954.29472 4134.16
1954.35056 6240.31
1954.4064 4067.84
1954.46224 1871.61
1954.51808 1511.91
1954.57393 3036.21
1954.62977 3927.76
1954.68562 1606.37
1954.74147 761.469
1954.79732 572.146
1954.85317 810.862
1954.90903 872.446
1954.96488 1007.72
1955.02074 1298.79
1955.0766 3098.46
1955.13246 4035.46
1955.18832 1863.39
1955.24418 2433.08
1955.30005 1201.41
1955.35591 1213.82
1955.41178 2658.37
1955.46765 5704.13
1955.52352 8976.12
1955.5794 10477.3
1955.63527 4556.06
1955.69115 2169.63
1955.74702 1849.54
1955.8029 4648.05
1955.85878 1872.12
1955.91467 822.328
1955.97055 25500.8
1956.02644 84617.8
1956.08232 2418.13
1956.13821 4928.87
1956.1941 54239.2
1956.24999 1507.55
1956.30589 1458.95
1956.36178 2406.57
1956.41768 5324.25
1956.47358 4624.06
1956.52948 2073.6
1956.58538 1827.27
1956.64128 3815.35
1956.69719 4316.71
1956.7531 1580.64
1956.809 910.815
1956.86491 1058.55
1956.92082 2145.62
1956.97674 2430.06
1957.03265 1484.08
1957.08857 1246.56
1957.14448 2291.95
1957.2004 5090.15
1957.25632 5810.24
1957.31225 4574.91
1957.36817 8059.9
1957.4241 887.014
1957.48002 678.754
1957.53595 708.939
1957.59188 1032.64
1957.64782 1079.12
1957.70375 2188.96
1957.75968 4690.89
1957.81562 3210.61
1957.87156 4531.48
1957.9275 2423.83
1957.98344 1781.45
1958.03938 3653.56
1958.09533 4339.73
1958.15128 1276.58
1958.20722 1195.93
1958.26317 2602.53
1958.31912 4500.33
1958.37508 3796.41
1958.43103 3109.55
1958.48699 1495.97
1958.54294 865.28
1958.5989 684.083
1958.65486 1317.27
1958.71083 3335.02
1958.76679 1629.43
1958.82276 2185.61
1958.87872 4153.08
1958.93469 2108.54
1958.99066 1310.28
1959.04663 1451.06
1959.10261 2668.75
1959.15858 5360.44
1959.21456 5473.44
1959.27054 2761.57
1959.32652 44243.8
1959.3825 36846.5
1959.43848 4517.62
1959.49447 5708.97
1959.55045 3553.86
1959.60644 1659.08
1959.66243 1068.25
1959.71842 668.724
1959.77442 522.099
1959.83041 403.955
1959.88641 408.931
1959.9424 660.54
1959.9984 1968.04
1960.0544 2323.75
1960.11041 1012.27
1960.16641 577.195
1960.22242 399.93
1960.27842 294.804
1960.33443 521.477
1960.39044 346.131
1960.44645 355.779
1960.50247 330.245
1960.55848 649.639
1960.6145 1788.19
1960.67052 1486.38
1960.72654 620.113
1960.78256 801.528
1960.83858 1391.64
1960.89461 2135.8
1960.95063 4740.8
1961.00666 5886.8
1961.06269 3161.31
1961.11872 3632.13
1961.17475 1742.68
1961.23079 680.828
1961.28682 450.429
1961.34286 384.493
1961.3989 396.706
1961.45494 709.82
1961.51098 2017.63
1961.56703 1254.67
1961.62307 494.674
1961.67912 339.289
1961.73517 436.029
1961.79122 471.4
1961.84727 33458
1961.90333 32306.3
1961.95938 934.035
1962.01544 1716.7
1962.0715 5597.56
1962.12756 5512.36
1962.18362 2226.35
1962.23968 861.235
1962.29575 688.622
1962.35181 552.162
1962.40788 415.472
1962.46395 574.403
1962.52002 608.148
1962.57609 838.058
1962.63217 2293.94
1962.68824 3949.77
1962.74432 4657.03
1962.8004 5509.45
1962.85648 3847.69
1962.91256 1516.05
1962.96865 881.458
1963.02473 715.989
1963.08082 827.355
1963.13691 980.638
1963.193 1209.31
1963.24909 2067.29
1963.30519 4599.04
1963.36128 6749.75
1963.41738 4578.52
1963.47348 2058.09
1963.52958 2151.05
1963.58568 2745.88
1963.64178 1209.12
1963.69789 3150.57
1963.75399 3733.66
1963.8101 923.21
1963.86621 783.836
1963.92232 1148.4
1963.97843 3118.76
1964.03455 4221.19
1964.09067 1489.22
1964.14678 700.87
1964.2029 142148
1964.25902 141663
1964.31515 1077.6
1964.37127 3259.87
1964.4274 2962.38
1964.48352 1110.45
1964.53965 912.118
1964.59578 1894.37
1964.65191 4748.16
1964.70805 3102.85
1964.76418 2152.37
1964.82032 962.248
1964.87646 447.664
1964.9326 339.248
1964.98874 495.182
1965.04488 443.304
1965.10103 380.767
1965.15718 572.816
1965.21332 969.203
1965.26947 2878.25
1965.32562 5084.24
1965.38178 4175.31
1965.43793 1666.62
1965.49409 693.311
1965.55025 488.313
1965.60641 380.519
1965.66257 351.496
1965.71873 423.907
1965.77489 1216.69
1965.83106 1540.83
1965.88723 1293.57
1965.9434 3480.73
1965.99957 5349.51
1966.05574 3884.64
1966.11191 1459.15
1966.16809 616.577
1966.22426 458.706
1966.28044 307.914
1966.33662 266.907
1966.39281 270.34
1966.44899 326.226
1966.50517 473.205
1966.56136 1007
1966.61755 3610.24
1966.67374 4279.83
1966.72993 1361.19
1966.78612 574.657
1966.84232 462.98
1966.89851 332.525
1966.95471 307.337
1967.01091 332.937
1967.06711 266.884
1967.12332 300.672
1967.17952 506.432
1967.23573 969.852
1967.29193 3078.38
1967.34814 4761.66
1967.40435 1473.85
1967.46057 598.965
1967.51678 363.929
1967.573 283.138
1967.62921 268.302
1967.68543 298.929
1967.74165 456.217
1967.79787 117168
1967.8541 945.896
1967.91032 2302.39
1967.96655 5003.04
1968.02278 5787.64
1968.07901 3436.46
1968.13524 1142.24
1968.19147 619.844
1968.24771 444.391
1968.30394 473.281
1968.36018 998.813
1968.41642 436.131
1968.47266 270.488
1968.52891 316.809
1968.58515 474.683
1968.6414 1161.42
1968.69764 3996.78
1968.75389 3110.98
1968.81014 883.312
1968.8664 375.094
1968.92265 236.523
1968.97891 188.863
1969.03516 177.529
1969.09142 195.323
1969.14768 215.155
1969.20395 316.832
1969.26021 785.712
1969.31647 2228.45
1969.37274 2280.94
1969.42901 4332.48
1969.48528 1615.88
1969.54155 472.162
1969.59783 270.45
1969.6541 319.366
1969.71038 179.331
1969.76666 141.925
1969.82294 29299.5
1969.87922 156.009
1969.9355 28443.4
1969.99178 305.388
1970.04807 666.434
1970.10436 2758.45
1970.16065 43061.2
1970.21694 330334
1970.27323 340.562
1970.32953 214.218
1970.38582 166.625
1970.44212 210.516
1970.49842 233.705
1970.55472 159.404
1970.61102 180.885
1970.66733 223.844
1970.72363 329.849
1970.77994 786.088
1970.83625 2969.21
1970.89256 2990.01
1970.94887 779.274
1971.00518 626.063
1971.0615 2368.98
1971.11782 4650.77
1971.17413 831.717
1971.23045 396.171
1971.28678 377.831
1971.3431 500.304
1971.39942 725.768
1971.45575 1231.27
1971.51208 3250.26
1971.56841 6536.32
1971.62474 5078.8
1971.68107 1890.53
1971.73741 911.949
1971.79374 738.11
1971.85008 3100.19
1971.90642 1615.33
1971.96276 1081.61
1972.0191 360.071
1972.07545 377.7
1972.13179 618.412
1972.18814 1728.63
1972.24449 4149.28
1972.30084 3348.93
1972.35719 2608.44
1972.41355 718.023
1972.4699 388.193
1972.52626 275.82
1972.58262 188.651
1972.63898 174.107
1972.69534 161.175
1972.7517 167.043
1972.80807 235.574
1972.86444 182.55
1972.92081 220.259
1972.97717 363.721
1973.03355 1142.1
1973.08992 2701.55
1973.14629 677.228
1973.20267 258.756
1973.25905 220.678
1973.31543 143.647
1973.37181 153.13
1973.42819 297.803
1973.48458 42990.6
1973.54096 387.04
1973.59735 167.273
1973.65374 163.567
1973.71013 207.743
1973.76652 52859.2
1973.82292 2251.25
1973.87931 962.61
1973.93571 606.866
1973.99211 1392.31
1974.04851 1618.29
1974.10491 1101.92
1974.16132 2764.44
1974.21772 3468.2
1974.27413 4560.59
1974.33054 1368.42
1974.38695 497.117
1974.44336 298.533
1974.49977 306.114
1974.55619 950.781
1974.6126 1831.99
1974.66902 597.646
1974.72544 232.692
1974.78186 124.623
1974.83829 85.9201
1974.89471 77.8879
1974.95114 85.3981
1975.00757 107.138
1975.064 197.962
1975.12043 50726.4
1975.17686 175742
1975.2333 134.55
1975.28973 277.399
1975.34617 1138.77
1975.40261 1019.69
1975.45905 381.54
1975.51549 394.082
1975.57194 215.197
1975.62838 311.616
1975.68483 452.291
1975.74128 262.894
1975.79773 373.103
1975.85418 1406.14
1975.91063 2299.07
1975.96709 1026.39
1976.02355 390.192
1976.08 1004.94
1976.13647 2099.45
1976.19293 726.347
1976.24939 198.063
1976.30586 150.864
1976.36232 103.372
1976.41879 95.6539
1976.47526 93.0428
1976.53173 63.9437
1976.58821 62.7508
1976.64468 75.4132
1976.70116 132.926
1976.75763 162.447
1976.81411 101.33
1976.8706 220.122
1976.92708 869.304
1976.98356 302.526
1977.04005 90.4921
1977.09654 81.8826
1977.15303 313450
1977.20952 316961
1977.26601 58.6029
1977.3225 64.6404
1977.379 93.6953
1977.4355 323.135
1977.49199 559.286
1977.5485 1025.44
1977.605 490.007
1977.6615 255.392
1977.71801 695.882
1977.77451 448.616
1977.83102 153.167
1977.88753 133.938
1977.94404 373.226
1978.00056 1052.54
1978.05707 174.848
1978.11359 74.0236
1978.17011 70.6256
1978.22663 62.0966
1978.28315 56.3995
1978.33967 66.8528
1978.3962 126.347
1978.45272 499.552
1978.50925 519.827
1978.56578 341.88
1978.62231 346.777
1978.67885 933.951
1978.73538 366.031
1978.79192 114.407
1978.84845 82.4853
1978.90499 75.0887
1978.96153 83.1867
1979.01808 80.4338
1979.07462 140.422
1979.13117 99.455
1979.18771 132.773
1979.24426 203.15
1979.30081 284.405
1979.35737 362.339
1979.41392 168.756
1979.47048 208.878
1979.52703 287.467
1979.58359 587.663
1979.64015 1659.55
1979.69671 1849.27
1979.75328 4785.53
1979.80984 2625.17
1979.86641 3652.62
1979.92298 7090.11
1979.97955 3979.57
1980.03612 1340.44
1980.09269 710.017
1980.14927 630.489
1980.20584 389.408
1980.26242 432.246
1980.319 1507.6
1980.37558 4720.82
1980.43217 3015.27
1980.48875 2074.67
1980.54534 2208.31
1980.60193 3643.73
1980.65851 1138.73
1980.71511 408.99
1980.7717 227.234
1980.82829 163.831
1980.88489 138.672
1980.94149 195.779
1980.99809 187.9
1981.05469 125.106
1981.11129 211.729
1981.16789 130.16
1981.2245 97.7135
1981.28111 145.404
1981.33771 92.5852
1981.39432 88.4921
1981.45094 96.0625
1981.50755 172.23
1981.56417 320.129
1981.62078 108.127
1981.6774 101.107
1981.73402 240.843
1981.79064 320.289
1981.84727 150.845
1981.90389 58.5812
1981.96052 59.4329
1982.01715 81.898
1982.07378 266.413
1982.13041 124.088
1982.18704 48.7977
1982.24368 52.1851
1982.30031 56.6659
1982.35695 85.682
1982.41359 261.38
1982.47023 551.67
1982.52687 196.101
1982.58352 116.577
1982.64016 439.22
1982.69681 363.685
1982.75346 208.684
1982.81011 1135.13
1982.86676 367.233
1982.92342 571.121
1982.98007 437.291
1983.03673 1672.55
1983.09339 2153.97
1983.15005 479.592
1983.20671 180.652
1983.26338 107.573
1983.32004 103.664
1983.37671 67.6929
1983.43338 72.8794
1983.49005 82.0411
1983.54672 61.359
1983.60339 46.0237
1983.66007 51.6484
1983.71675 39.7605
1983.77342 33.3313
1983.8301 46.5945
1983.88679 91.1493
1983.94347 112444
1984.00015 112327
1984.05684 44.3058
1984.11353 71.5086
1984.17022 43.6257
1984.22691 54.0129
1984.2836 156.979
1984.3403 97.708
1984.39699 247.163
1984.45369 304.014
1984.51039 83.223
1984.56709 58.7173
1984.6238 48.6392
1984.6805 63.4269
1984.73721 59.5639
1984.79391 50.4264
1984.85062 65.0242
1984.90733 86.496
1984.96405 102.054
1985.02076 126.607
1985.07748 220.006
1985.13419 499.58
1985.19091 2324.04
1985.24763 3096.4
1985.30435 803.008
1985.36108 290.881
1985.4178 151.277
1985.47453 107.59
1985.53126 74.1763
1985.58799 60.1265
1985.64472 54.4694
1985.70146 52.7174
1985.75819 65.4388
1985.81493 58.1798
1985.87167 60.9691
1985.92841 47.104
1985.98515 60.6348
1986.04189 89.5519
1986.09864 70.451
1986.15538 62.7658
1986.21213 60.9143
1986.26888 70.8653
1986.32563 115.047
1986.38238 136.582
1986.43914 119.089
1986.49589 126.129
1986.55265 138.42
1986.60941 293.886
1986.66617 330.316
1986.72294 430.643
1986.7797 559.214
1986.83647 963.007
1986.89323 2680.35
1986.95 6045.64
1987.00677 3046.89
1987.06355 2567.07
1987.12032 5680.7
1987.1771 3153.78
1987.23387 1030.19
1987.29065 487.515
1987.34743 291.806
1987.40421 200.485
1987.461 167.078
1987.51778 157.91
1987.57457 268.887
1987.63136 215.205
1987.68815 105.742
1987.74494 216.608
1987.80174 145.191
1987.85853 92.1715
1987.91533 198.125
1987.97213 745.65
1988.02893 173.563
1988.08573 89.8212
1988.14253 82.7407
1988.19934 225.011
1988.25614 229.816
1988.31295 83.3575
1988.36976 139.405
1988.42657 197.987
1988.48338 59.5258
1988.5402 57.8074
1988.59702 72.3025
1988.65383 56.6615
1988.71065 113.778
1988.76747 84.9079
1988.8243 44.5115
1988.88112 64.0706
1988.93795 63.8411
1988.99477 49.1249
1989.0516 384.334
1989.10843 6058.11
1989.16527 3070.04
1989.2221 96.3008
1989.27894 8773.82
1989.33577 45.9281
1989.39261 58.8716
1989.44945 78.455
1989.5063 68.8755
1989.56314 99.1792
1989.61999 133.217
1989.67683 195.403
1989.73368 398.61
1989.79053 1359.18
1989.84738 2518.16
1989.90424 624.316
1989.96109 337.968
1990.01795 445.833
1990.07481 881.006
1990.13167 3510.32
1990.18853 6479.6
1990.24539 2597.14
1990.30226 1158.5
1990.35912 1083.72
1990.41599 470.541
1990.47286 335.415
1990.52973 355.88
1990.58661 345.577
1990.64348 612.95
1990.70036 2558.39
1990.75724 3184.11
1990.81412 836.111
1990.871 325.435
1990.92788 165.289
1990.98476 120.85
1991.04165 87.8861
1991.09854 63.6731
1991.15543 60.4487
1991.21232 65.4655
1991.26921 60.1369
1991.3261 36.6551
1991.383 35.0277
1991.4399 33.4765
1991.4968 41.1503
1991.5537 57.4373
1991.6106 82.9901
1991.6675 67.6204
1991.72441 37.0748
1991.78132 71.3233
1991.83823 146.558
1991.89514 229.661
1991.95205 479.505
1992.00896 277.631
1992.06588 51.1402
1992.12279 47.9867
1992.17971 55.5348
1992.23663 46.8245
1992.29356 82.9331
1992.35048 15427
1992.4074 205.977
1992.46433 141.644
1992.52126 164.818
1992.57819 94.0168
1992.63512 3765.92
1992.69205 11729.1
1992.74899 79.6878
1992.80593 46.7262
1992.86286 35.1296
1992.9198 25.5595
1992.97674 31.1363
1993.03369 41.5916
1993.09063 79.3949
1993.14758 71.5122
1993.20453 88.2277
1993.26148 52.5701
1993.31843 155.153
1993.37538 148.208
1993.43233 73.7078
1993.48929 114.683
1993.54625 99.9293
1993.60321 129.118
1993.66017 59.363
1993.71713 49.6142
1993.77409 55.8196
1993.83106 76.2843
1993.88803 177.322
1993.945 142.768
1994.00197 172.484
1994.05894 320.866
1994.11591 1183.17
1994.17289 5468.1
1994.22987 3116.05
1994.28685 740.77
1994.34383 527.549
1994.40081 188.083
1994.45779 120.178
1994.51478 140.263
1994.57176 123.431
1994.62875 203.119
1994.68574 917.076
1994.74273 839
1994.79973 209.183
1994.85672 106.354
1994.91372 169.537
1994.97072 200.064
1995.02772 84.2797
1995.08472 72.1125
1995.14172 160.828
1995.19873 392.973
1995.25573 220.672
1995.31274 103.328
1995.36975 107.304
1995.42676 258.967
1995.48378 416.353
1995.54079 416.965
1995.59781 1042.83
1995.65483 3190.82
1995.71184 1980.31
1995.76887 612.483
1995.82589 238.5
1995.88291 157.056
1995.93994 251.576
1995.99697 707.153
1996.054 290.711
1996.11103 355.254
1996.16806 152.829
1996.22509 288.135
1996.28213 999.394
1996.33917 400.04
1996.39621 225.687
1996.45325 169.966
1996.51029 340.864
1996.56733 1468.24
1996.62438 919.421
1996.68143 672.025
1996.73847 2663.55
1996.79553 2704.54
1996.85258 1350.33
1996.90963 1837.09
1996.96669 445.82
1997.02374 364.338
1997.0808 487.828
1997.13786 470.569
1997.19492 2023.72
1997.25199 1459.15
1997.30905 296.637
1997.36612 216.646
1997.42319 272.497
1997.48026 655.547
1997.53733 3065.62
1997.5944 1638.06
1997.65148 448.309
1997.70855 569.837
1997.76563 523.592
1997.82271 912.835
1997.87979 3672.79
1997.93688 2029.44
1997.99396 776.205
1998.05105 1054.89
1998.10814 2096.24
1998.16523 4891.58
1998.22232 4817.72
1998.27941 5226.76
1998.3365 1548.23
1998.3936 674.658
1998.4507 517.989
1998.5078 696.931
1998.5649 2203.59
1998.622 5574.98
1998.67911 2244.99
1998.73621 841.846
1998.79332 604.583
1998.85043 673.942
1998.90754 1052.4
1998.96465 3608.97
1999.02177 5824.79
1999.07888 1865.92
1999.136 1002.86
1999.19312 604.905
1999.25024 664.121
1999.30736 1325.11
1999.36449 4609.8
1999.42161 6244.36
1999.47874 1897.57
1999.53587 930.788
1999.593 754.368
1999.65013 1098.28
1999.70726 1492.31
1999.7644 4543.15
1999.82153 7267.37
1999.87867 2708.51
1999.93581 1435.71
1999.99296 788.501
2000.0501 804.936
2000.10724 1297.36
2000.16439 3515.6
2000.22154 7953.86
2000.27869 4624.27
2000.33584 1629.1
2000.39299 988.286
2000.45015 876.78
2000.50731 124695
2000.56446 2227.33
2000.62162 6067.38
2000.67878 8065.54
2000.73595 3223.03
2000.79311 1.06e+06
2000.85028 23184.5
2000.90745 1079.66
2000.96462 1509.46
2001.02179 3127.78
2001.07896 7995.96
2001.13614 7260.8
2001.19331 4212.11
2001.25049 2926.24
2001.30767 1563.01
2001.36485 1469.18
2001.42203 1744.63
2001.47922 3546.7
2001.5364 8470.25
2001.59359 7531.33
2001.65078 3199.6
2001.70797 1605.37
2001.76516 1244.07
2001.82236 1271.42
2001.87955 1754.08
2001.93675 3632.23
2001.99395 7870.79
2002.05115 8888.72
2002.10835 3838.28
2002.16556 2062.02
2002.22276 1693.89
2002.27997 2700.42
2002.33718 2677.54
2002.39439 3035.36
2002.4516 6056.96
2002.50881 9956.37
2002.56603 6052.08
2002.62325 2960.66
2002.68046 1922.01
2002.73768 2135.64
2002.79491 4518.26
2002.85213 5983.46
2002.90936 4629.42
2002.96658 8555.82
2003.02381 9215.74
2003.08104 4557.09
2003.13827 2401.51
2003.19551 1893.66
2003.25274 1506.69
2003.30998 349236
2003.36722 2626.64
2003.42446 4770.6
2003.4817 9503.46
2003.53894 8420.98
2003.59618 4331.39
2003.65343 2382.95
2003.71068 1764.03
2003.76793 1660.18
2003.82518 1716.5
2003.88243 2516.06
2003.93969 4969.44
2003.99694 9325.92
2004.0542 8996.34
2004.11146 4398.42
2004.16872 2541.49
2004.22599 1738.23
2004.28325 1602.76
2004.34052 1766.41
2004.39778 2580.89
2004.45505 5070.38
2004.51232 9752.35
2004.5696 9821.89
2004.62687 5603.34
2004.68415 2781.83
2004.74142 1922.52
2004.7987 1560.14
2004.85598 1552.53
2004.91327 2372.12
2004.97055 3848.76
2005.02784 6291.45
2005.08512 10340
2005.14241 7302.34
2005.1997 3696.57
2005.257 2738.19
2005.31429 1986.27
2005.37158 2396.58
2005.42888 2686.13
2005.48618 2303.22
2005.54348 4005.4
2005.60078 7835.89
2005.65809 10075.5
2005.71539 5358.01
2005.7727 10222.9
2005.83001 4028.76
2005.88732 2816.77
2005.94463 1630.12
2006.00194 1727.89
2006.05926 2891.26
2006.11658 4522.79
2006.17389 8326.68
2006.23121 9385.71
2006.28854 5300.39
2006.34586 3669.95
2006.40318 2243.07
2006.46051 1246.84
2006.51784 1094.33
2006.57517 1237.19
2006.6325 1747.44
2006.68983 3361.64
2006.74717 7820.13
2006.8045 9214.38
2006.86184 32538
2006.91918 56535.5
2006.97652 1705.32
2007.03387 1274.4
2007.09121 967.227
2007.14856 1072.71
2007.20591 1854.72
2007.26326 3143.68
2007.32061 5579.16
2007.37796 9361.88
2007.43531 6494.5
2007.49267 2238.49
2007.55003 1187.85
2007.60739 843.461
2007.66475 847.182
2007.72211 2008.41
2007.77947 1522.81
2007.83684 1628.98
2007.89421 3502.97
2007.95158 6677.46
2008.00895 6222.67
2008.06632 2244.33
2008.1237 1304.71
2008.18107 1056.65
2008.23845 2084.98
2008.29583 909.235
2008.35321 871.306
2008.41059 2112.02
2008.46797 1113.56
2008.52536 1535.76
2008.58275 4141.86
2008.64014 2579.36
2008.69753 1151.99
2008.75492 2132.44
2008.81231 1211.02
2008.86971 857.596
2008.92711 1745.6
2008.9845 1273.37
2009.0419 405.201
2009.09931 307.143
2009.15671 339.735
2009.21412 584.834
2009.27152 1986.92
2009.32893 1194.31
2009.38634 894.828
2009.44375 1776.66
2009.50117 5381.79
2009.55858 6131.48
2009.616 2237.27
2009.67342 952.117
2009.73084 768.362
2009.78826 3246.31
2009.84568 1920.05
2009.90311 771.535
2009.96053 2394.33
2010.01796 1756.37
2010.07539 2974
2010.13282 5200.58
2010.19026 8460.02
2010.24769 4525.76
2010.30513 6256.08
2010.36257 2375.19
2010.42001 1501.11
2010.47745 812.151
2010.53489 840.694
2010.59233 1672.94
2010.64978 2135.59
2010.70723 1856.42
2010.76468 4069.03
2010.82213 8789.47
2010.87958 7967.25
2010.93704 4035.55
2010.99449 2145.11
2011.05195 1387.38
2011.10941 980.213
2011.16687 1535.42
2011.22433 1943.4
2011.2818 1231.27
2011.33926 1610.9
2011.39673 2720.62
2011.4542 6093.99
2011.51167 10496.4
2011.56915 9390.81
2011.62662 16288.7
2011.6841 1616.5
2011.74157 1510.04
2011.79905 2169.97
2011.85653 1264.41
2011.91402 1110.68
2011.9715 1273.59
2012.02899 1839.29
2012.08647 3612.12
2012.14396 7632.47
2012.20145 10496.3
2012.25894 6362.48
2012.31644 2808.3
2012.37393 2193.54
2012.43143 1671.58
2012.48893 1107.63
2012.54643 1191.71
2012.60393 3575.36
2012.66144 1479.4
2012.71894 2356.32
2012.77645 3331.47
2012.83396 7114.41
2012.89147 11100.9
2012.94898 6826.6
2013.00649 4275.86
2013.06401 1856.11
2013.12153 1206.38
2013.17904 1028.54
2013.23656 1026.37
2013.29409 1349.73
2013.35161 1694.76
2013.40914 2498.86
2013.46666 5039.43
2013.52419 6239.66
2013.58172 10807.9
2013.63925 8744.88
2013.69679 4022.18
2013.75432 1963.09
2013.81186 1373.3
2013.8694 1113.59
2013.92694 1412.77
2013.98448 1666.2
2014.04202 1998.34
2014.09957 1822.07
2014.15711 2304.98
2014.21466 3915.16
2014.27221 8336.84
2014.32976 11116.9
2014.38731 5929.51
2014.44487 2756.43
2014.50243 1659.99
2014.55998 1320.2
2014.61754 1102.41
2014.6751 934.089
2014.73267 963.593
2014.79023 1183.01
2014.8478 2054.68
2014.90537 2926.91
2014.96294 5132.11
2015.02051 10128.3
2015.07808 10144.2
2015.13565 4739.12
2015.19323 2598.34
2015.25081 1897.43
2015.30839 1160.38
2015.36597 1149.21
2015.42355 1131.54
2015.48114 1048.12
2015.53872 1723.15
2015.59631 1867.27
2015.6539 2444.79
2015.71149 4718.5
2015.76908 10528.2
2015.82668 9513.25
2015.88427 4936.39
2015.94187 2263.85
2015.99947 1427.04
2016.05707 1055.94
2016.11467 3326.73
2016.17228 1146.7
2016.22988 2127.39
2016.28749 1670.94
2016.3451 1418.08
2016.40271 2066.38
2016.46032 4214.2
2016.51794 9409.06
2016.57555 10179.7
2016.63317 4749.29
2016.69079 2531.56
2016.74841 2700.95
2016.80603 1797.59
2016.86365 1849.03
2016.92128 3344.48
2016.97891 3941.92
2017.03654 1787.14
2017.09417 1271.73
2017.1518 1691.54
2017.20943 3689.61
2017.26707 7583.06
2017.3247 11281.6
2017.38234 5900.82
2017.43998 7078.2
2017.49763 9062.31
2017.55527 1619.13
2017.61291 2091.15
2017.67056 889.995
2017.72821 704.387
2017.78586 904.81
2017.84351 1054.57
2017.90116 2232.58
2017.95882 3068.41
2018.01648 4200.53
2018.07414 9456.06
2018.1318 9768.45
2018.18946 4001.46
2018.24712 2329.61
2018.30479 2749.45
2018.36245 1155.62
2018.42012 703.059
2018.47779 658.44
2018.53546 779.988
2018.59314 2080.48
2018.65081 2288.73
2018.70849 1300.8
2018.76617 1868.23
2018.82384 4641.82
2018.88153 10066.2
2018.93921 7585.23
2018.99689 3671.26
2019.05458 2080.84
2019.11227 990.534
2019.16996 949.585
2019.22765 1559.93
2019.28534 136832
2019.34304 36726.8
2019.40073 1081.38
2019.45843 860.406
2019.51613 953.202
2019.57383 1623.84
2019.63154 4201.44
2019.68924 9762.93
2019.74695 7625.96
2019.80465 2408.76
2019.86236 1177.95
2019.92008 930.941
2019.97779 1484.97
2020.0355 2251.68
2020.09322 1688.35
2020.15094 607.022
2020.20866 506.478
2020.26638 678.076
2020.3241 921.46
2020.38182 1567.41
2020.43955 3430.64
2020.49728 8781.44
2020.55501 7824.16
2020.61274 2249.26
2020.67047 1087.59
2020.72821 945.32
2020.78594 2190.24
2020.84368 1176.29
2020.90142 1209.64
2020.95916 2503.79
2021.0169 1045.23
2021.07465 683.396
2021.13239 783.553
2021.19014 1298.12
2021.24789 3069.92
2021.30564 5393.39
2021.36339 9279.22
2021.42114 3095.42
2021.4789 1509.98
2021.53666 2181.17
2021.59442 862.61
2021.65218 456.986
2021.70994 509.589
2021.7677 396.37
2021.82547 351.463
2021.88324 404.35
2021.94101 678.804
2021.99878 1998.21
2022.05655 1257.18
2022.11432 2073.98
2022.1721 7034.03
2022.22988 6472
2022.28765 2987.87
2022.34543 1249.68
2022.40322 510.218
2022.461 472.653
2022.51879 312.346
2022.57657 230.764
2022.63436 263.137
2022.69215 351.423
2022.74994 1061.86
2022.80774 1502.07
2022.86553 610.748
2022.92333 799.449
2022.98113 1932.45
2023.03893 7632.76
2023.09673 4863.87
2023.15453 2122.67
2023.21234 1083.66
2023.27015 2410.75
2023.32796 1581.48
2023.38577 467.654
2023.44358 312.245
2023.50139 455.618
2023.55921 1527.1
2023.61702 847.868
2023.67484 365.164
2023.73266 429.94
2023.79048 961.128
2023.84831 2602.03
2023.90613 6128.61
2023.96396 4442.76
2024.02179 956.443
2024.07962 455.687
2024.13745 559.759
2024.19528 417.286
2024.25312 280.742
2024.31095 411.044
2024.36879 1291.03
2024.42663 489.778
2024.48447 2897.74
2024.54232 2877.19
2024.60016 1324.52
2024.65801 1061.14
2024.71586 1000.2
2024.77371 3805.77
2024.83156 5000.57
2024.88941 1006.01
2024.94727 466.067
2025.00512 801.281
2025.06298 623.082
2025.12084 358.918
2025.1787 1114.51
2025.23656 584.898
2025.29443 239.177
2025.3523 378.827
2025.41016 1057.79
2025.46803 435.89
2025.5259 336.497
2025.58378 426.327
2025.64165 1312.63
2025.69953 4977.84
2025.75741 1855.21
2025.81529 435.83
2025.87317 293.557
2025.93105 330.494
2025.98893 673.62
2026.04682 695.569
2026.10471 251.734
2026.1626 278.968
2026.22049 867.588
2026.27838 304.113
2026.33628 209.714
2026.39417 159.274
2026.45207 242.185
2026.50997 466.732
2026.56787 2071.63
2026.62577 3813.71
2026.68368 658.796
2026.74158 283.836
2026.79949 335.719
2026.8574 829.119
2026.91531 269.279
2026.97323 198.55
2027.03114 669.387
2027.08906 330.458
2027.14697 184.258
2027.20489 140.393
2027.26281 200.447
2027.32074 299.961
2027.37866 195.084
2027.43659 342.11
2027.49451 1998.4
2027.55244 451634
2027.61037 543329
2027.66831 541.947
2027.72624 1032.81
2027.78418 474.65
2027.84211 405.175
2027.90005 515.125
2027.95799 263.452
2028.01594 423.352
2028.07388 428.359
2028.13183 1527.93
2028.18977 2299.15
2028.24772 558.805
2028.30567 262.011
2028.36363 320.827
2028.42158 1170.55
2028.47954 2324.47
2028.53749 723.998
2028.59545 560.927
2028.65341 417.941
2028.71138 1578.59
2028.76934 2051.38
2028.82731 667.32
2028.88527 495.952
2028.94324 795.865
2029.00121 292.447
2029.05918 138.572
2029.11716 93.7949
2029.17513 132.745
2029.23311 131.527
2029.29109 171.519
2029.34907 518.068
2029.40705 1944.54
2029.46504 914.509
2029.52302 534.053
2029.58101 628.961
2029.639 208.1
2029.69699 130.544
2029.75498 54.6653
2029.81298 54.2254
2029.87097 129.649
2029.92897 64.9281
2029.98697 73.8264
2030.04497 89.2313
2030.10297 147.231
2030.16097 540.97
2030.21898 289.25
2030.27699 478.511
2030.33499 1192.94
2030.393 1100.7
2030.45102 410.654
2030.50903 341.863
2030.56705 709.798
2030.62506 330.925
2030.68308 148.061
2030.7411 157.529
2030.79912 133.856
2030.85715 341.325
2030.91517 765.807
2030.9732 271.11
2031.03123 262.764
2031.08926 136.415
2031.14729 177.827
2031.20532 262.96
2031.26336 398.236
2031.3214 1024.64
2031.37943 527.961
2031.43748 201.483
2031.49552 213.638
2031.55356 71.1892
2031.61161 176.886
2031.66965 119.737
2031.7277 102.194
2031.78575 533.707
2031.8438 299.82
2031.90186 101.718
2031.95991 88.1521
2032.01797 127.149
2032.07603 581.929
2032.13409 247.439
2032.19215 274.26
2032.25021 369.024
2032.30828 838.884
2032.36634 274.917
2032.42441 108.232
2032.48248 108.802
2032.54055 205.269
2032.59863 197.665
2032.6567 148.803
2032.71478 93.947
2032.77286 763.199
2032.83094 132.759
2032.88902 654.882
2032.9471 83.1382
2033.00519 240.555
2033.06328 369.744
2033.12136 401.14
2033.17945 1816.31
2033.23755 1449.57
2033.29564 969.525
2033.35373 823.898
2033.41183 715.314
2033.46993 280.61
2033.52803 252.846
2033.58613 100.335
2033.64423 83.4957
2033.70234 122.762
2033.76045 345.842
2033.81855 204.782
2033.87666 73.4895
2033.93477 426842
2033.99289 46844.9
2034.051 272.019
2034.10912 86.5454
2034.16724 70.0215
2034.22536 164.763
2034.28348 383.476
2034.3416 890.209
2034.39973 122.599
2034.45785 101.224
2034.51598 176.01
2034.57411 282.118
2034.63224 87.991
2034.69038 69.5572
2034.74851 113.762
2034.80665 843.63
2034.86479 138.285
2034.92293 96.4985
2034.98107 96.3039
2035.03921 172.885
2035.09736 261.003
2035.1555 109.707
2035.21365 168.978
2035.2718 114.379
2035.32995 301.337
2035.3881 162.081
2035.44626 51.3403
2035.50442 47.984
2035.56257 93.2106
2035.62073 333.106
2035.67889 154.12
2035.73706 66.3751
2035.79522 69.6441
2035.85339 140.871
2035.91156 226.504
2035.96973 164.293
2036.0279 175.276
2036.08607 192.517
2036.14425 144.556
2036.20242 113.714
2036.2606 52.4382
2036.31878 63.8205
2036.37696 164.462
2036.43514 219.583
2036.49333 340.398
2036.55152 122.311
2036.6097 43.4084
2036.66789 50.4847
2036.72608 146.82
2036.78428 151.547
2036.84247 93.9711
2036.90067 181.533
2036.95887 364.266
2037.01707 170.156
2037.07527 63.4547
2037.13347 34.9038
2037.19168 39.6281
2037.24988 62.2673
2037.30809 128.644
2037.3663 200.881
2037.42451 463.711
2037.48272 117.779
2037.54094 62.5709
2037.59915 107.673
2037.65737 90.3407
2037.71559 79.8732
2037.77381 60.3097
2037.83204 155.916
2037.89026 550.138
2037.94849 145.289
2038.00672 58.7183
2038.06494 98.8536
2038.12318 108.013
2038.18141 97.8374
2038.23964 91.8318
2038.29788 230.946
2038.35612 1083.89
2038.41436 909.015
2038.4726 217.115
2038.53084 112.802
2038.58909 92.4086
2038.64733 61.6498
2038.70558 47.2812
2038.76383 59.5872
2038.82208 213.271
2038.88033 678.538
2038.93859 302.222
2038.99684 84.2375
2039.0551 43.2367
2039.11336 42.664
2039.17162 36.582
2039.22989 43.6225
2039.28815 80.3144
2039.34642 446.96
2039.40468 557.627
2039.46295 137.792
2039.52123 71.9801
2039.5795 51.126
2039.63777 44.4567
2039.69605 87.4464
2039.75433 106.071
2039.81261 189.725
2039.87089 592.902
2039.92917 578.345
2039.98745 406.443
2040.04574 1685.61
2040.10403 1174.23
2040.16232 319.21
2040.22061 702.772
2040.2789 1442.62
2040.3372 394.366
2040.39549 586.117
2040.45379 895.321
2040.51209 1084.16
2040.57039 398.578
2040.62869 158.837
2040.687 160.645
2040.74531 142.836
2040.80361 66.7613
2040.86192 131.487
2040.92023 278.645
2040.97855 881.742
2041.03686 310.345
2041.09518 121.761
2041.1535 49.7324
2041.21181 691793
2041.27014 724.594
2041.32846 657341
2041.38678 102.961
2041.44511 117.343
2041.50344 550.093
2041.56177 591.947
2041.6201 193.892
2041.67843 176.38
2041.73677 61.9786
2041.7951 40.0666
2041.85344 54.9555
2041.91178 106.643
2041.97012 196.484
2042.02846 212.958
2042.08681 725.449
2042.14515 349.095
2042.2035 92.1172
2042.26185 110.464
2042.3202 299.048
2042.37855 74.9346
2042.43691 119.182
2042.49527 73.3071
2042.55362 68.1467
2042.61198 225.722
2042.67034 826.809
2042.72871 343.924
2042.78707 86.9673
2042.84544 71.9219
2042.90381 121.663
2042.96217 425.273
2043.02055 467.666
2043.07892 155.001
2043.13729 184.273
2043.19567 226.584
2043.25405 546.837
2043.31243 524.541
2043.37081 243.004
2043.42919 151.274
2043.48758 63.7295
2043.54596 63.7597
2043.60435 162.505
2043.66274 781.206
2043.72113 510.95
2043.77952 189.691
2043.83792 432.702
2043.89631 518.463
2043.95471 155.903
2044.01311 233.914
2044.07151 398.908
2044.12992 459.161
2044.18832 1035.51
2044.24673 592.601
2044.30513 200.555
2044.36354 365.118
2044.42195 335.202
2044.48037 414.293
2044.53878 239.481
2044.5972 150.534
2044.65562 330.856
2044.71404 208.375
2044.77246 251.581
2044.83088 455.594
2044.8893 421.545
2044.94773 124.622
2045.00616 122.989
2045.06459 540.755
2045.12302 581.092
2045.18145 135.137
2045.23989 65.4238
2045.29832 75.8855
2045.35676 82.5974
2045.4152 257.168
2045.47364 489.07
2045.53209 583.869
2045.59053 126.115
2045.64898 60.6093
2045.70742 82.9342
2045.76587 172.949
2045.82432 251.276
2045.88278 172.157
2045.94123 605.988
2045.99969 598.176
2046.05815 99.8131
2046.11661 68.9467
2046.17507 186.056
2046.23353 124.961
2046.292 100.406
2046.35046 185.162
2046.40893 1054.75
2046.4674 577.992
2046.52587 200.463
2046.58434 204.576
2046.64282 86.2636
2046.70129 146.123
2046.75977 220.25
2046.81825 258.977
2046.87673 1378.8
2046.93522 1033.78
2046.9937 222.776
2047.05219 101.09
2047.11068 72.0472
2047.16917 75.7148
2047.22766 115.074
2047.28615 361.69
2047.34464 1492.57
2047.40314 1890.78
2047.46164 330.967
2047.52014 145.537
2047.57864 129.171
2047.63714 137.365
2047.69565 257
2047.75415 247.359
2047.81266 872.381
2047.87117 2750.29
2047.92968 628.386
2047.9882 239.63
2048.04671 417.523
2048.10523 584.633
2048.16375 231.984
2048.22227 204.723
2048.28079 529.779
2048.33931 2841.89
2048.39784 1979.84
2048.45636 465.96
2048.51489 224.937
2048.57342 213.984
2048.63195 235.189
2048.69048 248.114
2048.74902 709.805
2048.80756 1768.83
2048.86609 4337.54
2048.92463 1118.69
2048.98318 329.626
2049.04172 212.059
2049.10026 179.345
2049.15881 185.257
2049.21736 329.608
2049.27591 532.773
2049.33446 2769.89
2049.39301 4532.85
2049.45157 1350.68
2049.51012 854.172
2049.56868 324.076
2049.62724 313.217
2049.6858 251.818
2049.74437 321.189
2049.80293 700.387
2049.8615 3226.75
2049.92007 246397
2049.97864 1117.44
2050.03721 480.023
2050.09578 314.009
2050.15436 558.464
2050.21293 991.58
2050.27151 735.689
2050.33009 905.812
2050.38867 3935.84
2050.44726 6136.67
2050.50584 1831.65
2050.56443 934.279
2050.62302 449.866
2050.68161 310.046
2050.7402 305.899
2050.79879 474.607
2050.85739 919.575
2050.91599 3449.75
2050.97458 7739.04
2051.03318 2376.59
2051.09179 687.753
2051.15039 396.566
2051.20899 369.775
2051.2676 336.097
2051.32621 405.869
2051.38482 679.487
2051.44343 2100.67
2051.50204 8113.68
2051.56066 4318.53
2051.61928 1674.89
2051.6779 1328.77
2051.73652 510.162
2051.79514 374.671
2051.85376 398.348
2051.91239 555.048
2051.97101 1258.96
2052.02964 5461.91
2052.08827 8333.47
2052.1469 2122.5
2052.20554 785.504
2052.26417 491.617
2052.32281 436.69
2052.38145 837.814
2052.44009 1133.06
2052.49873 930.912
2052.55737 2238.53
2052.61602 8808.41
2052.67467 6040.14
2052.73332 1502.17
2052.79197 678.432
2052.85062 507.797
2052.90927 435.373
2052.96793 446.545
2053.02658 616.123
2053.08524 1180.45
2053.1439 3617.46
2053.20257 10676.5
2053.26123 4531.2
2053.31989 1530.94
2053.37856 969.66
2053.43723 567.596
2053.4959 521.327
2053.55457 860.459
2053.61325 863.834
2053.67192 1441.84
2053.7306 4745.09
2053.78928 10839.4
2053.84796 3773
2053.90664 1493.11
2053.96533 1354.5
2054.02401 613.795
2054.0827 524.384
2054.14139 604.678
2054.20008 966.269
2054.25877 1879
2054.31746 5284.1
2054.37616 11126
2054.43486 3712.68
2054.49356 1321.8
2054.55226 747.391
2054.61096 551.324
2054.66966 574.726
2054.72837 1092.13
2054.78708 1040.16
2054.84578 1441.26
2054.9045 4660.05
2054.96321 11167.2
2055.02192 4952.65
2055.08064 1493.84
2055.13935 797.532
2055.19807 558.292
2055.25679 487.983
2055.31552 572.479
2055.37424 680.809
2055.43297 1176.91
2055.49169 3414.68
2055.55042 10232.4
2055.60915 7250.43
2055.66789 1816.92
2055.72662 886.237
2055.78536 589.031
2055.84409 518.191
2055.90283 492.712
2055.96158 581.919
2056.02032 865.46
2056.07906 2008
2056.13781 7383.88
2056.19656 9818.2
2056.2553 2865.17
2056.31406 404187
2056.37281 1074.62
2056.43156 473734
2056.49032 591.477
2056.54908 683.988
2056.60784 1389.79
2056.6666 2424.55
2056.72536 3897.52
2056.78412 10178.9
2056.84289 5784.42
2056.90166 1512.97
2056.96043 782.512
2057.0192 528.196
2057.07797 449.007
2057.13675 641.236
2057.19552 874.681
2057.2543 778.607
2057.31308 1590.64
2057.37186 5778.84
2057.43064 9478.46
2057.48943 2915.91
2057.54821 1164.92
2057.607 1414.08
2057.66579 758.099
2057.72458 413.527
2057.78338 402.282
2057.84217 491.976
2057.90097 800.303
2057.95977 2079.13
2058.01857 7121.99
2058.07737 7440.89
2058.13617 1764.82
2058.19497 724.465
2058.25378 433.264
2058.31259 333.96
2058.3714 333.858
2058.43021 331.888
2058.48902 409.371
2058.54784 667.994
2058.60665 1736.2
2058.66547 6291.16
2058.72429 5072.37
2058.78311 1227.07
2058.84194 771.864
2058.90076 661.336
2058.95959 586.879
2059.01842 383.897
2059.07725 271.283
2059.13608 304.689
2059.19491 450.593
2059.25375 1181.29
2059.31258 4696.68
2059.37142 3255.85
2059.43026 798.029
2059.4891 325.473
2059.54795 217.004
2059.60679 161.272
2059.66564 185.91
2059.72449 371.112
2059.78334 185.672
2059.84219 215.393
2059.90104 447.707
2059.9599 1753.26
2060.01875 1489.69
2060.07761 365.53
2060.13647 160.55
2060.19534 113.405
2060.2542 109.634
2060.31306 148.302
2060.37193 284.078
2060.4308 1120.46
2060.48967 969.019
2060.54854 382.938
2060.60742 354.294
2060.66629 177.805
2060.72517 140.159
2060.78405 172.843
2060.84293 298.922
2060.90181 819.601
2060.96069 3461.01
2061.01958 2612.87
2061.07847 1551.61
2061.13735 1037.16
2061.19624 327.698
2061.25514 214.206
2061.31403 194.992
2061.37293 200.202
2061.43182 312.211
2061.49072 532.949
2061.54962 861.599
2061.60852 3391.74
2061.66743 6303.29
2061.72633 1850.83
2061.78524 602.372
2061.84415 331.303
2061.90306 264.231
2061.96197 244.628
2062.02089 238.545
2062.0798 291.537
2062.13872 423.641
2062.19764 764.097
2062.25656 2245
2062.31548 7734.48
2062.37441 5482.28
2062.43333 1405.85
2062.49226 886.743
2062.55119 497.191
2062.61012 411.667
2062.66905 791.804
2062.72799 753.077
2062.78692 534.238
2062.84586 679.283
2062.9048 1591.56
2062.96374 4559.85
2063.02268 10054.3
2063.08163 3401.04
2063.14057 1168.09
2063.19952 613.813
2063.25847 461.502
2063.31742 408.086
2063.37638 359.5
2063.43533 371.312
2063.49429 479.301
2063.55324 798.812
2063.6122 1858.56
2063.67116 6630.99
2063.73013 9882.82
2063.78909 3076.24
2063.84806 1060.76
2063.90703 574.175
2063.966 433.875
2064.02497 372.007
2064.08394 375.728
2064.14291 424.802
2064.20189 589.364
2064.26087 867.686
2064.31985 2096.03
2064.37883 8011.72
2064.43781 9848.49
2064.4968 2660.99
2064.55578 1027.13
2064.61477 699.194
2064.67376 543.168
2064.73275 411.149
2064.79175 378.837
2064.85074 424.01
2064.90974 546.547
2064.96874 915.077
2065.02774 2179.99
2065.08674 7818.39
2065.14574 10373.9
2065.20475 2944.28
2065.26375 1134.97
2065.32276 649.094
2065.38177 437.474
2065.44078 377.896
2065.4998 380.219
2065.55881 453.895
2065.61783 547.795
2065.67685 852.989
2065.73587 1807.43
2065.79489 7200.38
2065.85391 11071.1
2065.91294 3556.98
2065.97197 1203.39
2066.03099 995.759
2066.09002 1531.76
2066.14906 966.141
2066.20809 601.896
2066.26713 456.979
2066.32616 502.027
2066.3852 720.51
2066.44424 1441.65
2066.50328 4662.21
2066.56233 12226.4
2066.62137 4791.87
2066.68042 1452.31
2066.73947 701.713
2066.79852 461.95
2066.85757 410.819
2066.91663 363.743
2066.97568 382.798
2067.03474 541.062
2067.0938 737.993
2067.15286 1016.44
2067.21192 2713.4
2067.27098 19263
2067.33005 8397.94
2067.38912 1986.33
2067.44819 886.791
2067.50726 577.741
2067.56633 433.36
2067.6254 506.755
2067.68448 347.2
2067.74356 342.489
2067.80264 431.395
2067.86172 688.06
2067.9208 1527.31
2067.97988 4838.62
2068.03897 11778.8
2068.09806 4232.27
2068.15715 1444.28
2068.21624 642.427
2068.27533 422.797
2068.33443 336.111
2068.39352 388.991
2068.45262 676.698
2068.51172 562.747
2068.57082 516.028
2068.62992 814.429
2068.68903 2219.77
2068.74813 7845.02
2068.80724 9131.25
2068.86635 2166.29
2068.92546 1297.39
2068.98458 648.798
2069.04369 367.76
2069.10281 302.749
2069.16193 324.888
2069.22105 656.527
2069.28017 469.302
2069.33929 508.963
2069.39841 1028.99
2069.45754 2409.23
2069.51667 9472.13
2069.5758 6316.87
2069.63493 1716.48
2069.69406 1049.43
2069.7532 729.028
2069.81234 727.165
2069.87147 423.639
2069.93061 755.397
2069.98976 675.71
2070.0489 472.791
2070.10804 663.906
2070.16719 887.26
2070.22634 2476.65
2070.28549 9581.24
2070.34464 4943.08
2070.40379 1562.39
2070.46295 1038.48
2070.52211 438.182
2070.58127 300.399
2070.64043 313.534
2070.69959 859.894
2070.75875 924.344
2070.81792 413.961
2070.87708 613.817
2070.93625 1530.16
2070.99542 2735.78
2071.0546 8408.04
2071.11377 4467.56
2071.17294 1040.04
2071.23212 481.328
2071.2913 310.67
2071.35048 231.728
2071.40966 267.461
2071.46885 776.588
2071.52803 1462.34
2071.58722 450.614
2071.64641 466.965
2071.7056 552.644
2071.76479 1414.2
2071.82399 6556.78
2071.88318 5304.02
2071.94238 1053.88
2072.00158 788.334
2072.06078 1819.1
2072.11998 1107.86
2072.17919 272.299
2072.23839 184.539
2072.2976 166.417
2072.35681 184.962
2072.41602 284.516
2072.47523 431.634
2072.53445 816.518
2072.59366 4475.54
2072.65288 6854.38
2072.7121 2014.53
2072.77132 523.101
2072.83055 290789
2072.88977 185.56
2072.949 242.993
2073.00823 296072
2073.06745 244.461
2073.12669 488.215
2073.18592 1575.97
2073.24515 1360.71
2073.30439 1298.65
2073.36363 1437.56
2073.42287 6124.86
2073.48211 2414.45
2073.54135 537.147
2073.6006 266.53
2073.65984 234.256
2073.71909 602.96
2073.77834 1180.39
2073.83759 630.826
2073.89685 1207.61
2073.9561 360.37
2074.01536 209.509
2074.07462 256.158
2074.13388 537.266
2074.19314 2434.72
2074.2524 4857.81
2074.31167 1498.86
2074.37094 1165.12
2074.4302 549.95
2074.48947 1187.41
2074.54875 639.553
2074.60802 191.364
2074.6673 130.38
2074.72657 125.476
2074.78585 156.953
2074.84513 263.264
2074.90441 894.888
2074.9637 1470.76
2075.02298 3749.74
2075.08227 3767.82
2075.14156 1694.88
2075.20085 443.544
2075.26014 212.037
2075.31944 150.439
2075.37873 151
2075.43803 165.926
2075.49733 577.507
2075.55663 993.541
2075.61593 305.532
2075.67524 337.293
2075.73454 1237.01
2075.79385 1206.19
2075.85316 3297.44
2075.91247 1516.54
2075.97178 363.494
2076.0311 209.069
2076.09041 328.601
2076.14973 1056.07
2076.20905 385.818
2076.26837 173.409
2076.32769 371.071
2076.38702 1137.24
2076.44634 446.428
2076.50567 205.864
2076.565 219.941
2076.62433 588.679
2076.68367 2857.91
2076.743 1890.42
2076.80234 804.441
2076.86167 323.342
2076.92101 230.797
2076.98036 493.231
2077.0397 986.223
2077.09904 488.736
2077.15839 346.585
2077.21774 150.914
2077.27709 153.032
2077.33644 334.157
2077.39579 895.148
2077.45515 533.84
2077.51451 1686.26
2077.57386 1456.83
2077.63322 933.064
2077.69259 1917.07
2077.75195 2352.95
2077.81131 700.402
2077.87068 352.717
2077.93005 288.818
2077.98942 432.075
2078.04879 644.569
2078.10817 208.003
2078.16754 139.079
2078.22692 258.784
2078.2863 740.031
2078.34568 1550.9
2078.40506 1627.18
2078.46444 347.448
2078.52383 170.986
2078.58322 152.136
2078.6426 328.189
2078.702 347.846
2078.76139 144.896
2078.82078 201.301
2078.88018 89.8615
2078.93958 146.782
2078.99897 349.996
2079.05837 191.755
2079.11778 119.62
2079.17718 201.184
2079.23659 1071.83
2079.296 619.212
2079.3554 290.932
2079.41482 158.085
2079.47423 79.2874
2079.53364 79.7362
2079.59306 102.891
2079.65248 36.4788
2079.7119 31.2059
2079.77132 50.0681
2079.83074 145.267
2079.89016 99.6811
2079.94959 200.586
2080.00902 620.846
2080.06845 607.276
2080.12788 908.431
2080.18731 230.135
2080.24675 104.963
2080.30618 77.8595
2080.36562 146.357
2080.42506 67.4972
2080.4845 42.537
2080.54395 61.8163
2080.60339 177.585
2080.66284 346.563
2080.72229 139.311
2080.78174 60.4104
2080.84119 69.3765
2080.90064 196.024
2080.9601 518.874
2081.01955 814.123
2081.07901 197.299
2081.13847 127.347
2081.19794 183.225
2081.2574 199.238
2081.31686 287.296
2081.37633 448.133
2081.4358 212.707
2081.49527 151.141
2081.55474 122.171
2081.61422 239.23
2081.67369 313.057
2081.73317 690.817
2081.79265 468.537
2081.85213 603.383
2081.91161 461.163
2081.9711 217.292
2082.03058 623.303
2082.09007 533.049
2082.14956 212.39
2082.20905 115.77
2082.26854 130.167
2082.32804 189.148
2082.38753 467.723
2082.44703 646.247
2082.50653 268.655
2082.56603 197.137
2082.62553 156.069
2082.68504 228.826
2082.74454 963.914
2082.80405 674.647
2082.86356 514.34
2082.92307 500.689
2082.98258 152.047
2083.0421 158.957
2083.10161 509.447
2083.16113 998.713
2083.22065 225.862
2083.28017 100.772
2083.3397 103.407
2083.39922 298.099
2083.45875 1091.39
2083.51828 484.873
2083.57781 150.11
2083.63734 130.125
2083.69687 271.79
2083.75641 285.032
2083.81594 474.267
2083.87548 978.598
2083.93502 285.67
2083.99456 136.299
2084.05411 205.586
2084.11365 365.273
2084.1732 1196.14
2084.23275 381.02
2084.2923 157.626
2084.35185 184.055
2084.4114 167.859
2084.47096 160.928
2084.53052 276.74
2084.59008 1158.93
2084.64964 626.167
2084.7092 342.765
2084.76876 798.676
2084.82833 2457.2
2084.8879 1931.87
2084.94746 745.407
2085.00704 241.579
2085.06661 273.992
2085.12618 182.502
2085.18576 119.091
2085.24534 232.107
2085.30492 649.037
2085.3645 940.691
2085.42408 219.51
2085.48366 159.827
2085.54325 409.511
2085.60284 1172.51
2085.66243 658.97
2085.72202 207.763
2085.78161 190.216
2085.84121 109.085
2085.9008 100.583
2085.9604 60483.4
2086.02 4985.75
2086.0796 63316.5
2086.1392 617.577
2086.19881 467.649
2086.25842 428.048
2086.31802 831.271
2086.37763 964.28
2086.43725 234.988
2086.49686 156.276
2086.55647 81.4748
2086.61609 70.2148
2086.67571 64.5291
2086.73533 84.6386
2086.79495 288.431
2086.85457 1106.56
2086.9142 390.133
2086.97383 226.622
2087.03346 360.693
2087.09309 1207.35
2087.15272 317.006
2087.21235 95.8388
2087.27199 51.5356
2087.33162 42.809
2087.39126 68.1297
2087.4509 105.353
2087.51055 96.8384
2087.57019 298.54
2087.62984 1086
2087.68948 390.966
2087.74913 200.368
2087.80878 762.758
2087.86844 812.107
2087.92809 153.338
2087.98775 88.0645
2088.0474 62.3857
2088.10706 90.1733
2088.16672 55.7209
2088.22639 60.9855
2088.28605 122.686
2088.34572 299.69
2088.40539 1048.52
2088.46505 383.179
2088.52473 282.155
2088.5844 1262.82
2088.64407 629.001
2088.70375 143.635
2088.76343 133.653
2088.82311 116.018
2088.88279 80.7768
2088.94247 82.4613
2089.00216 75.4044
2089.06184 168.254
2089.12153 256.797
2089.18122 882.504
2089.24091 391.912
2089.30061 339.732
2089.3603 949.717
2089.42 346.801
2089.4797 159.789
2089.5394 87.3544
2089.5991 47.0908
2089.6588 52.4292
2089.71851 140.174
2089.77822 166.536
2089.83793 89.6071
2089.89764 156.028
2089.95735 630.288
2090.01706 1373.78
2090.07678 1062.72
2090.1365 999.216
2090.19621 317.727
2090.25594 115.948
2090.31566 105.223
2090.37538 87.4368
2090.43511 162.034
2090.49484 92.8058
2090.55456 62.774
2090.6143 87.777
2090.67403 86.3006
2090.73376 219.477
2090.7935 807.164
2090.85324 131238
2090.91298 863.35
2090.97272 205.795
2091.03246 218.041
2091.0922 134443
2091.15195 147.789
2091.2117 91.0182
2091.27145 55.6861
2091.3312 45.983
2091.39095 54.6035
2091.45071 128.367
2091.51046 201.457
2091.57022 410.379
2091.62998 776.755
2091.68974 698.813
2091.74951 187.711
2091.80927 223.519
2091.86904 183.193
2091.92881 54.3155
2091.98858 50.991
2092.04835 50.5152
2092.10812 60.1389
2092.1679 177.617
2092.22768 93.1422
2092.28746 93.1015
2092.34724 190.68
2092.40702 466.489
2092.4668 881.024
2092.52659 516.174
2092.58638 469.183
2092.64616 216.912
2092.70596 77.7129
2092.76575 82.8082
2092.82554 71.1865
2092.88534 139.054
2092.94514 68.3475
2093.00493 68.5357
2093.06474 169.659
2093.12454 120.709
2093.18434 130.833
2093.24415 653.729
2093.30396 623.958
2093.36377 127.943
2093.42358 103.158
2093.48339 103.696
2093.54321 239.092
2093.60302 206.895
2093.66284 129.77
2093.72266 211.082
2093.78248 402.056
2093.8423 1270.54
2093.90213 2058.55
2093.96196 690.72
2094.02178 303.887
2094.08161 604.563
2094.14145 394.692
2094.20128 99.1156
2094.26111 112.875
2094.32095 191.105
2094.38079 133.073
2094.44063 57.7027
2094.50047 115.224
2094.56032 108.579
2094.62016 104.822
2094.68001 132.66
2094.73986 123.316
2094.79971 56.5244
2094.85956 169.186
2094.91941 351.618
2094.97927 309.914
2095.03913 188.304
2095.09899 150.737
2095.15885 48.3101
2095.21871 60.6607
2095.27857 138.89
2095.33844 56.0947
2095.39831 78.8701
2095.45818 171.271
2095.51805 81.7868
2095.57792 78.2918
2095.6378 61.1444
2095.69767 185.363
2095.75755 221.321
2095.81743 360.804
2095.87731 171.555
2095.93719 66.7733
2095.99708 109.106
2096.05696 141.771
2096.11685 80.9464
2096.17674 86.6795
2096.23663 72.9409
2096.29653 23.1392
2096.35642 17.0418
2096.41632 23.7904
2096.47622 36.4685
2096.53612 163.914
2096.59602 188.683
2096.65592 156.174
2096.71583 246.004
2096.77574 130.089
2096.83564 51.1303
2096.89556 39.3033
2096.95547 98.6507
2097.01538 63.4288
2097.0753 124.395
2097.13521 236.913
2097.19513 94.7702
2097.25505 113.857
2097.31498 175.903
2097.3749 184.328
2097.43483 92.1942
2097.49475 84.4436
2097.55468 137.171
2097.61461 123.094
2097.67455 52.66
2097.73448 94.7615
2097.79442 39.2298
2097.85436 50.1677
2097.91429 150.433
2097.97424 62.8733
2098.03418 32.9019
2098.09412 77.2052
2098.15407 91.1913
2098.21402 95.4521
2098.27397 133.887
2098.33392 128.07
2098.39387 174.466
2098.45383 628.866
2098.51378 647.898
2098.57374 606.839
2098.6337 483.565
2098.69366 532.916
2098.75363 1793.81
2098.81359 2759.55
2098.87356 970.858
2098.93353 342.571
2098.9935 183.354
2099.05347 148.3
2099.11345 193.587
2099.17342 227.22
2099.2334 84.478
2099.29338 113.668
2099.35336 92.3053
2099.41334 80.8332
2099.47332 36.4431
2099.53331 47.1463
2099.5933 27.9895
2099.65329 36.5887
2099.71328 82.4531
2099.77327 134.879
2099.83327 163.723
2099.89326 108.029
2099.95326 79.852
2100.01326 60.7058
2100.07326 90.9638
2100.13326 264.555
2100.19327 131.393
2100.25327 146.991
2100.31328 314.591
2100.37329 992.562
2100.4333 591.159
2100.49332 208.501
2100.55333 2611.17
2100.61335 95.577
2100.67337 77.8385
2100.73339 33.1886
2100.79341 35.1117
2100.85343 50.2737
2100.91346 65.1112
2100.97348 79.4152
2101.03351 82.6296
2101.09354 186.207
2101.15358 66.5565
2101.21361 10113.4
2101.27364 680.407
2101.33368 606.02
2101.39372 91.1686
2101.45376 877.466
2101.5138 932.926
2101.57385 473.085
2101.63389 1202.37
2101.69394 1298.73
2101.75399 3453.87
2101.81404 1450.75
2101.87409 530.994
2101.93415 319.509
2101.9942 102.428
2102.05426 111.503
2102.11432 130.293
2102.17438 94.3791
2102.23445 71.4618
2102.29451 59.0788
2102.35458 82.0434
2102.41465 179.434
2102.47472 119.571
2102.53479 50.7076
2102.59486 3039.52
2102.65494 3029.94
2102.71501 20.4629
2102.77509 32.877
2102.83517 68.1462
2102.89525 36.02
2102.95534 31.358
2103.01542 67.7794
2103.07551 168.029
2103.1356 67.9961
2103.19569 64.4923
2103.25578 45.4369
2103.31587 33543.1
2103.37597 3432.98
2103.43607 40.5517
2103.49617 33.163
2103.55627 93.4219
2103.61637 107.227
2103.67647 65.043
2103.73658 128.746
2103.79669 63.2945
2103.8568 41.3677
2103.91691 86.3266
2103.97702 129.966
2104.03713 56.8607
2104.09725 28.6949
2104.15737 28.5499
2104.21749 29.0264
2104.27761 44.9192
2104.33773 101.932
2104.39786 120.732
2104.45798 80.954
2104.51811 29.8297
2104.57824 36.9918
2104.63837 44.3345
2104.69851 51.709
2104.75864 101.077
2104.81878 61.3215
2104.87892 100.727
2104.93906 378.113
2104.9992 285.76
2105.05934 126.989
2105.11949 152.907
2105.17964 62.547
2105.23978 52.8323
2105.29994 9776.51
2105.36009 9777.8
2105.42024 151.473
2105.4804 240.371
2105.54055 154.789
2105.60071 60.4199
2105.66087 68.2047
2105.72104 31.6837
2105.7812 40.8346
2105.84137 78.0134
2105.90154 66.7521
2105.9617 43.6283
2106.02188 70.7373
2106.08205 47.3301
2106.14222 25524.7
2106.2024 34.2129
2106.26258 25368.2
2106.32276 75.7339
2106.38294 53.5226
2106.44312 96.6763
2106.50331 123.096
2106.56349 299.796
2106.62368 164.984
2106.68387 138.051
2106.74406 36271.1
2106.80426 65235.4
2106.86445 65.7608
2106.92465 88.3242
2106.98485 35.8165
2107.04505 28.3629
2107.10525 93.391
2107.16546 84.543
2107.22566 28.633
2107.28587 29.254
2107.34608 74.0761
2107.40629 88.8375
2107.4665 64.5336
2107.52671 113.072
2107.58693 87.9741
2107.64715 84.3794
2107.70737 29.6687
2107.76759 27.1037
2107.82781 56.595
2107.88804 120.665
2107.94826 54.1619
2108.00849 28.7755
2108.06872 43.051
2108.12895 122.303
2108.18918 101.027
2108.24942 101.18
2108.30966 80.9361
2108.36989 122.228
2108.43013 70.4881
2108.49038 27.2851
2108.55062 25.8217
2108.61086 58.3712
2108.67111 101.172
2108.73136 53.8518
2108.79161 34.4302
2108.85186 48.8481
2108.91212 198.265
2108.97237 116.884
2109.03263 37.0906
2109.09289 38.3556
2109.15315 64.3085
2109.21341 114.468
2109.27367 41.3033
2109.33394 26.2541
2109.39421 30.7636
2109.45448 64.8872
2109.51475 111.344
2109.57502 79.4054
2109.6353 24656.4
2109.69557 25036.2
2109.75585 179.898
2109.81613 505.892
2109.87641 864.667
2109.93669 300.958
2109.99698 105.449
2110.05726 107.588
2110.11755 94.3747
2110.17784 35.8685
2110.23813 33.6854
2110.29843 56.1367
2110.35872 211.329
2110.41902 48329.9
2110.47932 39.5169
2110.53962 29.7821
2110.59992 51.0658
2110.66022 67.4374
2110.72053 46595.4
2110.78084 51.4111
2110.84115 24.698
2110.90146 21.068
2110.96177 37.2318
2111.02208 106.274
2111.0824 189.854
2111.14272 88.6846
2111.20304 39.6693
2111.26336 40.2772
2111.32368 69.133
2111.384 66.26
2111.44433 49.1884
2111.50466 41.2108
2111.56499 112192
2111.62532 112051
2111.68565 198.234
2111.74599 434.815
2111.80632 1552.22
2111.86666 1414.85
2111.927 322.62
2111.98734 180.131
2112.04769 161.993
2112.10803 86.9526
2112.16838 60.3726
2112.22873 44.331
2112.28908 40.4957
2112.34943 77.0576
2112.40978 93.5865
2112.47014 259.772
2112.53049 882.095
2112.59085 381.387
2112.65121 102.356
2112.71158 77.5615
2112.77194 125.351
2112.83231 136.423
2112.89267 45.4986
2112.95304 34.4331
2113.01341 24.9056
2113.07379 29.9738
2113.13416 17.4218
2113.19454 24.5173
2113.25491 70.41
2113.31529 164.493
2113.37568 44.6468
2113.43606 31.8638
2113.49644 42.345
2113.55683 57.1345
2113.61722 29.5294
2113.67761 12.1056
2113.738 11.9111
2113.79839 15.4734
2113.85879 30.2126
2113.91919 26.1966
2113.97958 31.8941
2114.03998 143.623
2114.10039 84.4071
2114.16079 30.389
2114.2212 18.9223
2114.2816 16.864
2114.34201 20.7217
2114.40242 12.7811
2114.46283 11.1778
2114.52325 23.5975
2114.58366 23.212
2114.64408 20.3526
2114.7045 44.8375
2114.76492 118.112
2114.82534 151.687
2114.88577 39.2857
2114.9462 44.8745
2115.00662 33.6203
2115.06705 54.1142
2115.12748 187.239
2115.18792 194.107
2115.24835 52.3468
2115.30879 62.9069
2115.36923 52.8772
2115.42967 28.241
2115.49011 34.8469
2115.55055 127.888
2115.611 99642.6
2115.67144 192.389
2115.73189 177.635
2115.79234 63.4184
2115.8528 30.0633
2115.91325 29.0128
2115.9737 32.3794
2116.03416 41.178
2116.09462 80.6458
2116.15508 229.814
2116.21554 487.93
2116.27601 230.467
2116.33647 165.835
2116.39694 58.6126
2116.45741 35.6254
2116.51788 74.207
2116.57835 69.5461
2116.63883 29.2742
2116.69931 18.6142
2116.75978 10.6288
2116.82026 12.5297
2116.88074 25.334
2116.94123 68.1232
2117.00171 63.8334
2117.0622 51.7125
2117.12269 100.694
2117.18318 33.7336
2117.24367 25.9093
2117.30416 38.9909
2117.36466 91.4001
2117.42516 72.9893
2117.48565 24.3537
2117.54615 26.9718
2117.60666 31843.7
2117.66716 340139
2117.72767 70.3113
2117.78817 103.588
2117.84868 129.541
2117.90919 108.524
2117.96971 52.1722
2118.03022 48.3618
2118.09074 67.7818
2118.15125 83.9356
2118.21177 81.5739
2118.27229 154.077
2118.33282 124.145
2118.39334 192.727
2118.45387 413.793
2118.5144 1610.86
2118.57493 3822.68
2118.63546 1517.24
2118.69599 523.759
2118.75653 224.016
2118.81706 116.112
2118.8776 77.0976
2118.93814 52.5085
2118.99868 43.6809
2119.05923 46.9378
2119.11977 86.6103
2119.18032 116.43
2119.24087 54.9068
2119.30142 39.4427
2119.36197 36.6736
2119.42253 48.8145
2119.48308 78.3966
2119.54364 56.9824
2119.6042 141.424
2119.66476 139.775
2119.72532 346.771
2119.78589 717.514
2119.84645 254.704
2119.90702 95.8085
2119.96759 94.5765
2120.02816 241.95
2120.08874 600.18
2120.14931 229.677
2120.20989 140.878
2120.27046 164.975
2120.33104 304.202
2120.39163 686.591
2120.45221 205.625
2120.5128 116.465
2120.57338 110.372
2120.63397 37.7857
2120.69456 32.6702
2120.75515 22.135
2120.81575 16.5029
2120.87634 15.6868
2120.93694 23.3785
2120.99754 92.7485
2121.05814 100.603
2121.11874 41.8969
2121.17935 30.5078
2121.23995 30.7155
2121.30056 80.0875
2121.36117 226.929
2121.42178 116.1
2121.48239 107.527
2121.54301 71.2432
2121.60363 24.1251
2121.66424 21.7516
2121.72486 16.4689
2121.78548 12.3242
2121.84611 18.9772
2121.90673 40.3093
2121.96736 78.1317
2122.02799 73.6882
2122.08862 18.1561
2122.14925 14.3502
2122.20988 9.064
2122.27052 7.94283
2122.33116 9.19302
2122.3918 19.3773
2122.45244 57.2613
2122.51308 79.9829
2122.57372 17.6182
2122.63437 14.8731
2122.69502 25.8878
2122.75567 17.53
2122.81632 11.3306
2122.87697 11.2986
2122.93762 35.1336
2122.99828 88.5455
2123.05894 24.4357
2123.1196 15.921
2123.18026 12.01
2123.24092 150167
2123.30159 7.27174
2123.36225 9.16367
2123.42292 20.4358
2123.48359 88.1657
2123.54426 55.5612
2123.60494 19.5447
2123.66561 14.7845
2123.72629 11.3776
2123.78697 14.6235
2123.84765 16.9202
2123.90833 20.5698
2123.96902 54.7256
2124.0297 94.0304
2124.09039 41.7686
2124.15108 43.2887
2124.21177 59.5409
2124.27246 103.126
2124.33316 230.56
2124.39385 817.624
2124.45455 1851.96
2124.51525 745.736
2124.57595 293.401
2124.63665 206.924
2124.69736 512.33
2124.75806 977.215
2124.81877 302.029
2124.87948 101.56
2124.94019 323573
2125.00091 81257
2125.06162 94.0605
2125.12234 35.2477
2125.18306 22.9054
2125.24378 22.9888
2125.3045 12.9778
2125.36523 11.7084
2125.42595 10.953
2125.48668 12.0651
2125.54741 40.7499
2125.60814 67.0642
2125.66887 15.7142
2125.7296 8.41108
2125.79034 7.14022
2125.85108 5.49491
2125.91182 9.05262
2125.97256 10.5202
2126.0333 14.6514
2126.09405 45.5046
2126.15479 54.6802
2126.21554 12.9062
2126.27629 10.0568
2126.33704 11.1169
2126.3978 6.931
2126.45855 5.94463
2126.51931 7.0677
2126.58007 11.5947
2126.64083 44.5816
2126.70159 61.2226
2126.76235 15.672
2126.82312 15.4566
2126.88389 43.1549
2126.94465 37.2582
2127.00543 25.598
2127.0662 24.4216
2127.12697 22.3597
2127.18775 47.9896
2127.24853 70.5594
2127.3093 42.6759
2127.37009 55.483
2127.43087 68.8856
2127.49165 97.8625
2127.55244 169.346
2127.61323 419.649
2127.67402 814.294
2127.73481 2687.97
2127.7956 10545.8
2127.8564 1147.76
2127.91719 320.461
2127.97799 8046.37
2128.03879 96.0149
2128.0996 70.3978
2128.1604 50.687
2128.2212 36.0876
2128.28201 35.407
2128.34282 61.2603
2128.40363 34.5909
2128.46444 18.2291
2128.52526 21.8037
2128.58607 16.1741
2128.64689 11.9793
2128.70771 12.5282
2128.76853 10.3308
2128.82935 17.6452
2128.89018 38.093
2128.95101 36.6384
2129.01183 15.1326
2129.07266 36
2129.13349 13.3205
2129.19433 6.67556
2129.25516 9.69568
2129.316 14.3453
2129.37684 8.72913
2129.43768 11.9891
2129.49852 39.3672
2129.55936 21.1831
2129.62021 13.7537
2129.68106 5.32503
2129.74191 3.50871
2129.80276 3.08849
2129.86361 3.53198
2129.92446 4.13482
2129.98532 7.11925
2130.04618 29.4323
2130.10704 35.8188
2130.1679 7.37256
2130.22876 5.32844
2130.28962 8.71423
2130.35049 14.0184
2130.41136 7.13453
2130.47223 9.39077
2130.5331 24.4323
2130.59397 80.465
2130.65485 46.1697
2130.71572 26.0362
2130.7766 11.6964
2130.83748 20.5893
2130.89836 13.4065
2130.95925 15.9543
2131.02013 5.78842
2131.08102 13.2244
2131.14191 11.2663
2131.2028 10.4104
2131.26369 25.7191
2131.32459 13.3981
2131.38548 4.78411
2131.44638 4.41366
2131.50728 4.27193
2131.56818 7.48101
2131.62908 14205.7
2131.68999 4.87442
2131.75089 4.99727
2131.8118 13.5251
2131.87271 33.5037
2131.93362 4916.77
2131.99454 9325.25
2132.05545 6.08886
2132.11637 5.92841
2132.17729 12.1226
2132.23821 15.0964
2132.29913 16.4857
2132.36005 27.6942
2132.42098 18.0763
2132.48191 25.2107
2132.54283 16.2569
2132.60377 145106
2132.6647 7.74888
2132.72563 7.41496
2132.78657 32.1118
2132.84751 93.8443
2132.90844 16.901
2132.96939 7.89102
2133.03033 7.76388
2133.09127 20.5057
2133.15222 19.0556
2133.21317 13.2254
2133.27412 5.6488
2133.33507 9.89029
2133.39602 16.8294
2133.45698 9.57005
2133.51793 4.48461
2133.57889 5.42695
2133.63985 11.9207
2133.70082 19.4258
2133.76178 22.2441
2133.82274 7.62214
2133.88371 4.54462
2133.94468 5.63555
2134.00565 10.5155
2134.06662 7.01593
2134.1276 23.1485
2134.18857 9.5084
2134.24955 4.47312
2134.31053 8.12799
2134.37151 13.9009
2134.4325 4.41423
2134.49348 3.24581
2134.55447 3.15689
2134.61545 4.37363
2134.67644 3.52743
2134.73744 4.10435
2134.79843 10.0616
2134.85942 8.11008
2134.92042 11.0634
2134.98142 15.3487
2135.04242 8.29111
2135.10342 5.32822
2135.16443 5.2794
2135.22543 5.53703
2135.28644 7.06709
2135.34745 9.79991
2135.40846 10.141
2135.46947 12.8783
2135.53049 17.8766
2135.5915 31.3299
2135.65252 54.3317
2135.71354 90.7872
2135.77456 256.252
2135.83558 776.552
2135.89661 904.852
2135.95763 211.372
2136.01866 122.896
2136.07969 254.545
2136.14072 186.622
2136.20176 55.3463
2136.26279 32.7145
2136.32383 25.7778
2136.38487 18.4867
2136.44591 17.5741
2136.50695 12.6784
2136.568 7.00874
2136.62904 5.71496
2136.69009 5.45071
2136.75114 6.87304
2136.81219 13.4468
2136.87324 41.7032
2136.9343 18.0874
2136.99535 7.40498
2137.05641 5.53738
2137.11747 7.28637
2137.17853 20.0513
2137.23959 62.8709
2137.30066 33.8436
2137.36173 39.6101
2137.42279 83.0109
2137.48386 50.6955
2137.54494 24.008
2137.60601 12.4224
2137.66708 9.4043
2137.72816 10.6961
2137.78924 10.3724
2137.85032 5.52006
2137.9114 4.38005
2137.97249 4.34676
2138.03357 9.81169
2138.09466 23.2346
2138.15575 9.30789
2138.21684 8.18177
2138.27793 13.1443
2138.33903 13.0857
2138.40012 30.2
2138.46122 123.864
2138.52232 92.5956
2138.58342 27.9379
2138.64453 11.2407
2138.70563 17.083
2138.76674 12.3731
2138.82785 9.33597
2138.88896 12.1504
2138.95007 37.5181
2139.01118 35.4648
2139.0723 12.4317
2139.13342 12.4848
2139.19453 37.5827
2139.25566 95.6252
2139.31678 28.7505
2139.3779 16.2728
2139.43903 40.5245
2139.50016 33.0086
2139.56129 19.6973
2139.62242 139.351
2139.68355 122.768
2139.74468 16.2619
2139.80582 11.6771
2139.86696 16.2919
2139.9281 47.1741
2139.98924 91.1116
2140.05038 22.001
2140.11153 9.91934
2140.17268 5.26461
2140.23382 9.25216
2140.29497 5.96611
2140.35613 4.16252
2140.41728 10.209
2140.47844 7.2913
2140.53959 6.3592
2140.60075 10.7123
2140.66191 6.40241
2140.72308 6.06676
2140.78424 7.22836
2140.84541 12.1755
2140.90658 31.4821
2140.96774 21.9973
2141.02892 8.48639
2141.09009 3.66562
2141.15126 3.12851
2141.21244 3.58672
2141.27362 4.94689
2141.3348 8.60606
2141.39598 8.36331
2141.45716 8.49271
2141.51835 3.8997
2141.57954 4.10161
2141.64073 3.46089
2141.70192 3.33066
2141.76311 8.55258
2141.8243 5.32056
2141.8855 12.3572
2141.9467 76.906
2142.0079 19.2949
2142.0691 12.2862
2142.1303 12.608
2142.1915 43.5111
2142.25271 46.3785
2142.31392 49.8746
2142.37513 20.6746
2142.43634 38.6609
2142.49755 46.6166
2142.55877 29.1859
2142.61999 8.13703
2142.6812 5.36656
2142.74242 6.76854
2142.80365 13.616
2142.86487 38.3725
2142.9261 90.5508
2142.98732 68.8268
2143.04855 19.1422
2143.10978 8.34418
2143.17102 6.84568
2143.23225 15.9058
2143.29349 71.2313
2143.35472 62.4748
2143.41596 14.6639
2143.47721 33.2281
2143.53845 64.4077
2143.59969 47.4896
2143.66094 10.2811
2143.72219 5.65397
2143.78344 6.48686
2143.84469 8.83185
2143.90594 4.28464
2143.9672 3.48006
2144.02846 4.27121
2144.08971 8.37416
2144.15098 5.68547
2144.21224 4.15598
2144.2735 5.04449
2144.33477 6.05109
2144.39604 8.61781
2144.4573 14.5807
2144.51858 33.7295
2144.57985 144.266
2144.64112 179.423
2144.7024 58.0736
2144.76368 19.2801
2144.82496 13.4653
2144.88624 11.0007
2144.94752 13.2617
2145.00881 10.6235
2145.07009 13.7441
2145.13138 15.4573
2145.19267 12.7424
2145.25397 13.8875
2145.31526 9.89471
2145.37655 10.2114
2145.43785 10.1539
2145.49915 12.0909
2145.56045 16.1377
2145.62175 13.5615
2145.68306 15.5838
2145.74436 22.2846
2145.80567 47.6589
2145.86698 145.378
2145.92829 78.768
2145.98961 35.3013
2146.05092 47.8549
2146.11224 49.4161
2146.17356 30.5091
2146.23488 14.9888
2146.2962 20.6849
2146.35752 16.3786
2146.41885 25.518
2146.48017 53.5026
2146.5415 49.12
2146.60283 25.4386
2146.66417 14.3112
2146.7255 28.3179
2146.78684 14.349
2146.84817 28.7484
2146.90951 18.297
2146.97085 17.8721
2147.0322 32.9877
2147.09354 17.3025
2147.15489 43.6787
2147.21624 112.784
2147.27759 115.682
2147.33894 123.12
2147.40029 65.9634
2147.46165 68.7278
2147.523 46.3975
2147.58436 21.5367
2147.64572 57.3871
2147.70709 46.5697
2147.76845 19.0827
2147.82982 40.9968
2147.89118 45.3646
2147.95255 34.1429
2148.01392 85.6509
2148.0753 229.165
2148.13667 516.959
2148.19805 180.057
2148.25942 80.0982
2148.3208 29.9607
2148.38219 41.616
2148.44357 60.7878
2148.50495 21.7964
2148.56634 23.8049
2148.62773 64.3136
2148.68912 31.2026
2148.75051 21.2854
2148.8119 67.2447
2148.8733 128.703
2148.9347 262.438
2148.9961 65.7518
2149.0575 71.6854
2149.1189 26.7557
2149.1803 32.1517
2149.24171 78.8115
2149.30312 115.445
2149.36453 77.2953
2149.42594 85.4509
2149.48735 104.917
2149.54877 115.834
2149.61018 60.957
2149.6716 77.6543
2149.73302 98.4936
2149.79444 100.59
2149.85587 407.097
2149.91729 833.396
2149.97872 282.283
2150.04015 76.0001
2150.10158 46.3107
2150.16301 83.9994
2150.22445 66.6263
2150.28588 30.4001
2150.34732 33.1481
2150.40876 80.1688
2150.4702 48597.9
2150.53164 59040.3
2150.59309 255.246
2150.65453 230.626
2150.71598 1.0155e+06
2150.77743 45.8381
2150.83888 38.2566
2150.90034 97.2398
2150.96179 90.2669
2151.02325 83.4195
2151.08471 2103.46
2151.14617 148.689
2151.20763 243.225
2151.26909 1070.8
2151.33056 3189.47
2151.39203 2403.48
2151.4535 742.79
2151.51497 279.887
2151.57644 196.347
2151.63791 260.539
2151.69939 717.803
2151.76087 1572.75
2151.82235 853.233
2151.88383 296.046
2151.94531 277.317
2152.0068 149.233
2152.06828 123.366
2152.12977 131.101
2152.19126 125.02
2152.25276 145.274
2152.31425 248.792
2152.37574 455.487
2152.43724 999.73
2152.49874 476.165
2152.56024 179.597
2152.62174 93.3236
2152.68325 73.6479
2152.74476 90.7038
2152.80626 152.708
2152.86777 33931
2152.92928 1329.02
2152.9908 1586.01
2153.05231 382.465
2153.11383 174.669
2153.17535 121.352
2153.23687 68.0377
2153.29839 59.5598
2153.35991 81.3481
2153.42144 170.397
2153.48297 505.612
2153.54449 1084.89
2153.60603 353.83
2153.66756 111.329
2153.72909 336768
2153.79063 70153.7
2153.85217 40.1821
2153.91371 36.6626
2153.97525 49.3007
2154.03679 83.0602
2154.09833 133.773
2154.15988 312.917
2154.22143 985.581
2154.28298 587.396
2154.34453 192.707
2154.40608 217.516
2154.46764 3481.97
2154.5292 57.0339
2154.59076 77.628
2154.65232 282.734
2154.71388 400.627
2154.77544 111.526
2154.83701 70.7193
2154.89858 3556.08
2154.96015 188.285
2155.02172 54.5594
2155.08329 39.9172
2155.14486 32.9122
2155.20644 111.041
2155.26802 252.093
2155.3296 181.621
2155.39118 177.391
2155.45276 79.6433
2155.51435 162.313
2155.57594 71.3793
2155.63753 141.851
2155.69912 474.15
2155.76071 227.211
2155.8223 51.2037
2155.8839 22.6516
2155.9455 16.3211
2156.0071 19.0924
2156.0687 45.0189
2156.1303 28.6066
2156.1919 39.4263
2156.25351 40.909
2156.31512 32.1406
2156.37673 109.174
2156.43834 262.366
2156.49995 180.487
2156.56157 36.1658
2156.62319 22.6682
2156.6848 15.3417
2156.74642 7316.41
2156.80805 7327.29
2156.86967 17.6035
2156.9313 16.473
2156.99292 22.484
2157.05455 63.8938
2157.11618 79.5985
2157.17782 49.2278
2157.23945 18.6407
2157.30109 14.9658
2157.36273 48.1505
2157.42437 53.7261
2157.48601 150.078
2157.54765 147.02
2157.6093 31.8261
2157.67094 16.8467
2157.73259 17.7642
2157.79424 37.5403
2157.85589 141.656
2157.91755 101.568
2157.9792 40.1572
2158.04086 78990
2158.10252 79085
2158.16418 339.963
2158.22584 52.1202
2158.28751 89.6884
2158.34917 56.4742
2158.41084 21.0555
2158.47251 19.3542
2158.53418 23.721
2158.59586 35.3188
2158.65753 66.4932
2158.71921 58.4843
2158.78089 44.1936
2158.84257 56.0587
2158.90425 94.8415
2158.96593 195.276
2159.02762 602.211
2159.08931 2206.79
2159.151 1302.16
2159.21269 343.275
2159.27438 139.861
2159.33607 76.8478
2159.39777 61.1028
2159.45947 95.6892
2159.52117 61.3203
2159.58287 39.7135
2159.64457 34.8609
2159.70628 40.1941
2159.76798 53.585
2159.82969 113.77
2159.8914 248.858
2159.95311 737.605
2160.01483 895.549
2160.07654 258.273
2160.13826 92.1761
2160.19998 55.3325
2160.2617 87.6592
2160.32342 79.6563
2160.38515 77.8116
2160.44687 58.2404
2160.5086 40.8023
2160.57033 34.871
2160.63206 37.0377
2160.6938 93.7167
2160.75553 66.0053
2160.81727 147.339
2160.87901 532.083
2160.94075 562.486
2161.00249 408.258
2161.06423 595.23
2161.12598 322.723
2161.18773 175.885
2161.24948 317.431
2161.31123 329.211
2161.37298 400.554
2161.43473 289.268
2161.49649 80.4255
2161.55825 90.5178
2161.62001 50.3388
2161.68177 35.8296
2161.74353 61.7519
2161.8053 23.3066
2161.86706 37.5237
2161.92883 98.6409
2161.9906 80.3515
2162.05237 28.3596
2162.11415 44.7942
2162.17592 1445.18
2162.2377 4659.35
2162.29948 56.2241
2162.36126 175.911
2162.42304 158.788
2162.48483 200.067
2162.54661 583.416
2162.6084 507.09
2162.67019 206.501
2162.73198 114.818
2162.79378 78.0355
2162.85557 133.298
2162.91737 94.858
2162.97917 101.34
2163.04097 93.2053
2163.10277 113.257
2163.16457 161.962
2163.22638 275.357
2163.28819 567.785
2163.35 1363.74
2163.41181 5655.5
2163.47362 5667.41
2163.53543 2526.13
2163.59725 3740.31
2163.65907 1247.29
2163.72089 51092
2163.78271 3067.77
2163.84453 156.895
2163.90636 98.1723
2163.96818 74.182
2164.03001 71.52
2164.09184 50.5268
2164.15367 57.5779
2164.21551 93.9432
2164.27734 55.4036
2164.33918 30.1449
2164.40102 22.4052
2164.46286 20.26
2164.5247 28.3066
2164.58655 32.7825
2164.64839 93.8801
2164.71024 99.4515
2164.77209 37.4149
2164.83394 21.7709
2164.8958 31.0154
2164.95765 119.157
2165.01951 50.5563
2165.08137 89.0186
2165.14323 135.314
2165.20509 36.5852
2165.26695 15.61
2165.32882 13.2315
2165.39069 22.474
2165.45256 33.7531
2165.51443 22.569
2165.5763 70.6091
2165.63817 199.106
2165.70005 170.074
2165.76193 31.9923
2165.82381 17.3466
2165.88569 16.2734
2165.94757 19.8857
2166.00946 34.9431
2166.07135 88.9419
2166.13323 109.058
2166.19512 168.298
2166.25702 453.601
2166.31891 196.393
2166.38081 67.3241
2166.4427 66.1059
2166.5046 194.292
2166.5665 208.447
2166.62841 143.909
2166.69031 225.635
2166.75222 468.033
2166.81413 492.181
2166.87604 226.593
2166.93795 191.153
2166.99986 141.036
2167.06178 477.918
2167.12369 754.903
2167.18561 248.35
2167.24753 90.2917
2167.30945 46.3313
2167.37138 60.0823
2167.4333 77.8667
2167.49523 89.4561
2167.55716 133.679
2167.61909 56.0716
2167.68102 25.944
2167.74296 27.9877
2167.8049 58.82
2167.86683 151.678
2167.92877 237.344
2167.99072 65.4108
2168.05266 71.1355
2168.1146 65.3991
2168.17655 49.2452
2168.2385 71.5426
2168.30045 96.9875
2168.3624 118.926
2168.42436 148.694
2168.48631 222.27
2168.54827 465.167
2168.61023 1324.13
2168.67219 5039.68
2168.73415 3263.83
2168.79612 809.611
2168.85809 320.577
2168.92005 182.528
2168.98202 147.625
2169.044 104.588
2169.10597 104.304
2169.16794 2246.43
2169.22992 41.4626
2169.2919 48.8402
2169.35388 51.5702
2169.41586 176.201
2169.47785 377.091
2169.53983 56.8641
2169.60182 60.0832
2169.66381 69.4884
2169.7258 101.982
2169.7878 44.8787
2169.84979 33.2787
2169.91179 34.8038
2169.97379 18.8809
2170.03579 45.3874
2170.09779 72.1694
2170.15979 74.5232
2170.2218 51.0174
2170.2838 162.651
2170.34581 338.769
2170.40782 98.1712
2170.46984 57.7278
2170.53185 37.1516
2170.59387 23.988
2170.65588 33.9637
2170.7179 8297.67
2170.77993 65.3424
2170.84195 8332.7
2170.90397 15.0055
2170.966 7.96678
2171.02803 9.91725
2171.09006 113318
2171.15209 113181
2171.21412 46.281
2171.27616 34.168
2171.3382 46.0322
2171.40024 56.1493
2171.46228 39.7149
2171.52432 51.8536
2171.58636 18.944
2171.64841 13.7756
2171.71046 34.9915
2171.77251 59.4404
2171.83456 48.0741
2171.89661 91.2275
2171.95867 45.9794
2172.02073 44.858
2172.08278 44.6573
2172.14484 53.0492
2172.20691 50.1248
2172.26897 46.9378
2172.33104 48.0356
2172.3931 39.862
2172.45517 77.525
2172.51724 352.559
2172.57932 1107.93
2172.64139 870.546
2172.70347 478.316
2172.76555 195.543
2172.82763 415.897
2172.88971 473.958
2172.95179 130.687
2173.01388 207.213
2173.07596 558.171
2173.13805 267.047
2173.20014 83.0457
2173.26223 53.2806
2173.32433 48.0964
2173.38642 37.3277
2173.44852 31.6477
2173.51062 21.5776
2173.57272 27.7057
2173.63483 41.9585
2173.69693 47.9452
2173.75904 109.025
2173.82115 748.498
2173.88326 1466.04
2173.94537 204.83
2174.00748 87.7884
2174.0696 89.6024
2174.13171 77.7458
2174.19383 67.9913
2174.25595 81.2029
2174.31808 139.722
2174.3802 275.434
2174.44233 791.085
2174.50445 3464.45
2174.56658 2168.42
2174.62871 505.028
2174.69085 190.191
2174.75298 106.166
2174.81512 79.8272
2174.87726 67.6613
2174.9394 95.403
2175.00154 209.445
2175.06368 114.201
2175.12583 72.7783
2175.18798 54.427
2175.25013 51.9352
2175.31228 88.3083
2175.37443 405.542
2175.43658 517.706
2175.49874 140.413
2175.5609 57.4326
2175.62306 35.9453
2175.68522 36.3202
2175.74738 38.3488
2175.80955 37.8421
2175.87171 49.0686
2175.93388 68.0235
2175.99605 506.39
2176.05823 255.895
2176.1204 1038.57
2176.18258 1025.44
2176.24475 941.567
2176.30693 3181.44
2176.36911 1512.27
2176.4313 378.047
2176.49348 162.882
2176.55567 86.8599
2176.61786 55.5791
2176.68005 39.0612
2176.74224 31.3289
2176.80443 27.2768
2176.86663 23.7188
2176.92882 21.8669
2176.99102 16.8968
2177.05322 17.6598
2177.11543 25.9337
2177.17763 41.4984
2177.23984 44.9115
2177.30204 32.8238
2177.36425 13.7853
2177.42646 11.5162
2177.48868 18.9623
2177.55089 21.4815
2177.61311 11.7342
2177.67533 691.023
2177.73755 15.7534
2177.79977 17.9917
2177.86199 22.2783
2177.92422 50.7741
2177.98645 108.159
2178.04867 47.4591
2178.11091 38.4235
2178.17314 36.7015
2178.23537 80.9277
2178.29761 221.42
2178.35985 830.802
2178.42209 874.698
2178.48433 679.282
2178.54657 1191.05
2178.60882 222.401
2178.67106 72.9485
2178.73331 51.4174
2178.79556 39.4119
2178.85781 37.6703
2178.92007 43.4304
2178.98232 56.2464
2179.04458 187.074
2179.10684 700.075
2179.1691 323.244
2179.23136 3238.96
2179.29363 3480.87
2179.3559 3395.4
2179.41816 374.075
2179.48043 391.592
2179.54271 799.744
2179.60498 336.712
2179.66725 248.798
2179.72953 169.237
2179.79181 92.8619
2179.85409 37.3663
2179.91637 24.8722
2179.97866 28.685
2180.04094 16.7435
2180.10323 13.0668
2180.16552 12.5069
2180.22781 770101
2180.29011 106.904
2180.3524 86.4126
2180.4147 68.8739
2180.477 18.6083
2180.5393 11.3351
2180.6016 10.8372
2180.6639 8.01291
2180.72621 8.22696
2180.78851 11.7163
2180.85082 27.7835
2180.91313 145.449
2180.97545 76.6154
2181.03776 14.2377
2181.10008 7.89953
2181.1624 6.8044
2181.22472 8.18713
2181.28704 7.65742
2181.34936 9.79053
2181.41169 14.7562
2181.47401 6.69745
2181.53634 5.498
2181.59867 5.40641
2181.661 5.75233
2181.72334 6.09421
2181.78567 6.8978
2181.84801 10.1697
2181.91035 8.51084
2181.97269 7.97658
2182.03504 8.76621
2182.09738 9.96853
2182.15973 11.2358
2182.22208 12.9252
2182.28443 15.2948
2182.34678 19.7009
2182.40913 27.8144
2182.47149 50.139
2182.53384 51.1748
2182.5962 61.2783
2182.65856 110.968
2182.72093 324.76
2182.78329 954.064
2182.84566 388.648
2182.90802 154.539
2182.97039 127.746
2183.03277 152.815
2183.09514 234.336
2183.15751 499.601
2183.21989 703.69
2183.28227 1949.42
2183.34465 7884.68
2183.40703 7645.56
2183.46942 1612.53
2183.5318 612.686
2183.59419 317.335
2183.65658 189.862
2183.71897 132.578
2183.78136 103.468
2183.84376 91.4258
2183.90615 102.836
2183.96855 227.46
2184.03095 991.879
2184.09335 803.826
2184.15576 178.56
2184.21816 88.5374
2184.28057 74.9568
2184.34298 87.0343
2184.40539 157.996
2184.4678 172.679
2184.53022 237.216
2184.59263 518.811
2184.65505 2470.36
2184.71747 2402.89
2184.77989 1050.7
2184.84231 1689.87
2184.90474 7359.51
2184.96717 10218.5
2185.02959 2077.7
2185.09202 673.846
2185.15446 328.791
2185.21689 200.952
2185.27933 148.813
2185.34176 142.193
2185.4042 529.762
2185.46664 875.746
2185.52909 305.222
2185.59153 80.9265
2185.65398 50.9163
2185.71643 75.1128
2185.77888 87.1473
2185.84133 28.3138
2185.90378 17.9925
2185.96624 14.2168
2186.02869 11.9894
2186.09115 10.08
2186.15361 9.34795
2186.21607 9.21562
2186.27854 11.7553
2186.34101 22.7909
2186.40347 15.3378
2186.46594 11.057
2186.52841 12.3194
2186.59089 14.172
2186.65336 19.395
2186.71584 34.3642
2186.77832 31.3851
2186.8408 43.0431
2186.90328 70.1817
2186.96576 148.495
2187.02825 536.292
2187.09074 2806.77
2187.15323 1313.05
2187.21572 265.241
2187.27821 112.711
2187.3407 299603
2187.4032 15289.9
2187.4657 68.4561
2187.5282 93.035
2187.5907 180.297
2187.6532 755.379
2187.71571 2072.13
2187.77822 1466.55
2187.84072 350.864
2187.90324 163.338
2187.96575 112.898
2188.02826 121.805
2188.09078 198.687
2188.1533 544.94
2188.21581 2792.6
2188.27834 2162.05
2188.34086 473.674
2188.40338 165.145
2188.46591 83.7942
2188.52844 54.7646
2188.59097 44.0094
2188.6535 44.7818
2188.71604 38.3555
2188.77857 101.445
2188.84111 121.498
2188.90365 31.5872
2188.96619 28.7187
2189.02873 17.0529
2189.09128 25.4046
2189.15382 31.2949
2189.21637 547.112
2189.27892 43.1423
2189.34147 21.563
2189.40403 525.212
2189.46658 36.1362
2189.52914 74.0867
2189.5917 555.982
2189.65426 546.933
2189.71682 87.2599
2189.77938 33.8957
2189.84195 24.1794
2189.90452 21.5087
2189.96709 21.9552
2190.02966 25.2508
2190.09223 31.7517
2190.15481 50.2951
2190.21738 62.2182
2190.27996 96.9162
2190.34254 213.541
2190.40513 351.639
2190.46771 1573.18
2190.53029 4108.77
2190.59288 1280.41
2190.65547 297.407
2190.71806 138.669
2190.78066 79.6926
2190.84325 51.9584
2190.90585 43.6828
2190.96844 35.948
2191.03104 22.7812
2191.09365 17.5438
2191.15625 14.5541
2191.21886 12.3763
2191.28146 10.8966
2191.34407 9.45826
2191.40668 8.57463
2191.46929 7.97157
2191.53191 7.58308
2191.59453 7.9868
2191.65714 10.7772
2191.71976 19.4025
2191.78238 20.377
2191.84501 25.7593
2191.90763 10.5157
2191.97026 6.82792
2192.03289 5.97946
2192.09552 5.55217
2192.15815 5.60213
2192.22078 6.1174
2192.28342 8.40688
2192.34606 20.2998
2192.4087 28.5963
2192.47134 39.3085
2192.53398 27.8199
2192.59663 20.9444
2192.65927 36.9776
2192.72192 69.1858
2192.78457 60.7124
2192.84722 57.0304
2192.90988 12.7485
2192.97253 7.82545
2193.03519 6.35074
2193.09785 6.00503
2193.16051 6.40609
2193.22317 10.7239
2193.28584 13.1316
2193.3485 7.15053
2193.41117 7.15257
2193.47384 7.49651
2193.53651 8.88186
2193.59918 16.4071
2193.66186 37.1978
2193.72454 17.0818
2193.78722 12.4441
2193.8499 13.0232
2193.91258 15.6072
2193.97526 30.2492
2194.03795 47.7611
2194.10064 29.6446
2194.16333 31.8096
2194.22602 40.2688
2194.28871 54.3478
2194.35141 79.0737
2194.4141 128.61
2194.4768 245.552
2194.5395 596.012
2194.6022 2993.01
2194.66491 3688.16
2194.72761 973.973
2194.79032 408.825
2194.85303 435.711
2194.91574 1698.19
2194.97845 4332.65
2195.04117 980.228
2195.10388 1123.99
2195.1666 621.054
2195.22932 138.323
2195.29204 79.1469
2195.35477 68.7335
2195.41749 64.0361
2195.48022 50.7242
2195.54295 461173
2195.60568 461104
2195.66841 61.3426
2195.73115 69.4543
2195.79388 48.762
2195.85662 59.8679
2195.91936 65.5742
2195.9821 39.273
2196.04484 31.108
2196.10759 58.8168
2196.17034 69.6308
2196.23308 342.584
2196.29583 694.751
2196.35859 154.272
2196.42134 84.8903
2196.4841 139.886
2196.54685 559.965
2196.60961 880.83
2196.67237 1531.74
2196.73514 1076.43
2196.7979 252.918
2196.86067 182.014
2196.92344 72.7274
2196.98621 49.9948
2197.04898 128.214
2197.11175 231.059
2197.17453 78.4802
2197.23731 64.0036
2197.30008 200.084
2197.36287 485.715
2197.42565 129.255
2197.48843 147.438
2197.55122 314.682
2197.61401 127.053
2197.6768 84.9151
2197.73959 127.471
2197.80238 148.625
2197.86518 99.724
2197.92797 126.17
2197.99077 188.067
2198.05357 377.842
2198.11638 644.191
2198.17918 1715.8
2198.24199 8223.76
2198.30479 9013.98
2198.3676 3657.49
2198.43042 2944.37
2198.49323 903.549
2198.55604 523.752
2198.61886 609.8
2198.68168 676.366
2198.7445 461.381
2198.80732 275.687
2198.87015 298.483
2198.93297 525.757
2198.9958 590.582
2199.05863 485.672
2199.12146 427.808
2199.18429 603.072
2199.24713 926.728
2199.30996 2448.57
2199.3728 1289.74
2199.43564 832.268
2199.49848 1298.92
2199.56133 1637.95
2199.62417 761.13
2199.68702 799.592
2199.74987 639.576
2199.81272 1082.41
2199.87557 1757.47
2199.93843 2089.59
2200.00128 2862.27
2200.06414 1656.53
2200.127 1305.56
2200.18986 2653.2
2200.25273 1378.44
2200.31559 1563.61
2200.37846 1782.96
2200.44133 2054.67
2200.5042 1562.65
2200.56707 2739.82
2200.62995 745.567
2200.69282 686.492
2200.7557 1788.46
2200.81858 524.516
2200.88146 146.195
2200.94434 184.498
2201.00723 237.392
2201.07012 308.582
2201.133 623.927
2201.19589 1002.46
2201.25879 289.864
2201.32168 133.943
2201.38458 167.641
2201.44747 479.226
2201.51037 605.969
2201.57327 827.377
2201.63618 683.823
2201.69908 597.604
2201.76199 659.788
2201.8249 896.75
2201.88781 935.709
2201.95072 735.14
2202.01363 321.052
2202.07655 405.894
2202.13947 912.773
2202.20239 1571.64
2202.26531 1311.42
2202.32823 727.878
2202.39115 667.774
2202.45408 754.433
2202.51701 697.037
2202.57994 267.604
2202.64287 663.604
2202.7058 1030.9
2202.76874 910.416
2202.83168 454.553
2202.89462 254.51
2202.95756 386.06
2203.0205 785.041
2203.08344 688.664
2203.14639 287.248
2203.20934 392.199
2203.27229 480.981
2203.33524 455.942
2203.39819 398.462
2203.46115 206.957
2203.5241 241.121
2203.58706 157.78
2203.65002 236.111
2203.71299 280.398
2203.77595 95.1898
2203.83892 120.134
2203.90188 245.608
2203.96485 852.138
2204.02782 3593.05
2204.0908 1491.19
2204.15377 395.367
2204.21675 203.555
2204.27973 175.772
2204.34271 251.121
2204.40569 447.852
2204.46867 504.547
2204.53166 694.803
2204.59465 394.332
2204.65764 556.552
2204.72063 702.111
2204.78362 1223
2204.84661 4209.08
2204.90961 11072.3
2204.97261 3475.34
2205.03561 1343.57
2205.09861 763.998
2205.16162 632.688
2205.22462 280198
2205.28763 216.053
2205.35064 551.039
2205.41365 742.396
2205.47666 266.549
2205.53968 183.725
2205.60269 241.73
2205.66571 244.876
2205.72873 114.275
2205.79175 128.7
2205.85478 200.719
2205.9178 539.291
2205.98083 140.001
2206.04386 58.7306
2206.10689 166.148
2206.16992 158.622
2206.23295 52.4826
2206.29599 24.1691
2206.35903 29.6088
2206.42207 94.8321
2206.48511 131.172
2206.54815 71.0265
2206.6112 113.786
2206.67424 278.366
2206.73729 2418.1
2206.80034 2644.47
2206.8634 463.285
2206.92645 157.033
2206.98951 89.5343
2207.05256 100.489
2207.11562 97.6127
2207.17869 119.229
2207.24175 539.849
2207.30481 878.427
2207.36788 202.857
2207.43095 223.09
2207.49402 319.855
2207.55709 1081.12
2207.62016 1481.69
2207.68324 488.458
2207.74632 118.798
2207.8094 55.4038
2207.87248 50.1191
2207.93556 65.0716
2207.99865 33.6048
2208.06173 104.475
2208.12482 83.3231
2208.18791 69.9913
2208.251 44.8801
2208.3141 26.1247
2208.37719 11.121
2208.44029 9.85344
2208.50339 10.4683
2208.56649 18.1843
2208.62959 43.8144
2208.6927 206.565
2208.7558 103.077
2208.81891 77.5571
2208.88202 27.3959
2208.94513 12.4965
2209.00825 12.0906
2209.07136 17.9602
2209.13448 44.2941
2209.1976 129.256
2209.26072 362.504
2209.32384 93.2505
2209.38697 29.3245
2209.45009 34.6877
2209.51322 34.3397
2209.57635 58.4519
2209.63948 92.2344
2209.70262 29.2191
2209.76575 27.1567
2209.82889 17.9917
2209.89203 19.6128
2209.95517 24.1455
2210.01831 31.2836
2210.08146 38.6621
2210.1446 50.8416
2210.20775 115.741
2210.2709 212.523
2210.33405 730.514
2210.3972 1980.18
2210.46036 374.839
2210.52352 127.337
2210.58667 58.2124
2210.64984 38.2713
2210.713 22.4284
2210.77616 19.5656
2210.83933 28.4407
2210.9025 27.1147
2210.96566 54.1059
2211.02884 136.534
2211.09201 177.764
2211.15518 588.028
2211.21836 615.635
2211.28154 591.276
2211.34472 110.129
2211.4079 89.2357
2211.47109 36.5701
2211.53427 22.2997
2211.59746 41.8891
2211.66065 50.496
2211.72384 58.9783
2211.78703 29.5531
2211.85023 22.6746
2211.91342 32.7489
2211.97662 82.4446
2212.03982 48.4989
2212.10303 37.6596
2212.16623 57.8303
2212.22943 43.2485
2212.29264 17.1254
2212.35585 42.3371
2212.41906 16.2985
2212.48228 363078
2212.54549 31.7634
2212.60871 363410
2212.67193 228.734
2212.73515 177.967
2212.79837 73.253
2212.86159 81.7757
2212.92482 34.7564
2212.98804 33.0752
2213.05127 21.8994
2213.1145 9.29725
2213.17774 11.7238
2213.24097 30.061
2213.30421 57.2305
2213.36745 49.3172
2213.43069 47.7923
2213.49393 73.1034
2213.55717 58.3718
2213.62042 68.0559
2213.68366 99.9166
2213.74691 78.566
2213.81016 116.708
2213.87342 64.9637
2213.93667 330.978
2213.99993 269.661
2214.06318 90.4381
2214.12644 129.585
2214.18971 44.7426
2214.25297 80.6949
2214.31623 123.693
2214.3795 174.524
2214.44277 41.4975
2214.50604 43.2167
2214.56931 77.1895
2214.63259 86.4463
2214.69586 186.473
2214.75914 812.333
2214.82242 1822.57
2214.8857 1209.44
2214.94899 2829.52
2215.01227 426.046
2215.07556 135.025
2215.13885 69.9983
2215.20214 77.2316
2215.26543 49.5405
2215.32873 38.1432
2215.39202 92.2187
2215.45532 70.9903
2215.51862 54.0245
2215.58192 55.0698
2215.64522 90.4737
2215.70853 165.198
2215.77184 171.545
2215.83514 269.361
2215.89845 938.404
2215.96177 7896.2
2216.02508 4207.01
2216.0884 1085.09
2216.15171 313.719
2216.21503 206.975
2216.27836 363.804
2216.34168 1177.87
2216.405 578.488
2216.46833 705.308
2216.53166 1185.34
2216.59499 553.108
2216.65832 1960.62
2216.72166 939.954
2216.78499 174.088
2216.84833 83.9574
2216.91167 59.1874
2216.97501 71.0219
2217.03835 37.0268
2217.1017 22.2483
2217.16504 23.6883
2217.22839 31.784
2217.29174 46.5951
2217.35509 150.794
2217.41845 71.4228
2217.4818 34.0157
2217.54516 54.7315
2217.60852 98.0619
2217.67188 74.4461
2217.73525 52.0068
2217.79861 197.932
2217.86198 141.216
2217.92535 120.091
2217.98872 434.043
2218.05209 269.276
2218.11546 221.238
2218.17884 161.068
2218.24221 123.569
2218.30559 602.426
2218.36897 323.083
2218.43236 90.9919
2218.49574 330.168
2218.55913 162.339
2218.62252 107.797
2218.68591 165.441
2218.7493 535.179
2218.81269 115.279
2218.87609 38.2033
2218.93949 60.7701
2219.00288 65.1531
2219.06629 19.3595
2219.12969 176.793
2219.19309 128.286
2219.2565 40.8413
2219.31991 45.9481
2219.38332 125.777
2219.44673 92.2559
2219.51014 64.4861
2219.57356 130.827
2219.63698 121.111
2219.7004 216.917
2219.76382 664.635
2219.82724 313.967
2219.89066 179.663
2219.95409 127.641
2220.01752 245.297
2220.08095 262.85
2220.14438 57.2361
2220.20781 59.6825
2220.27125 43.1704
2220.33469 34.469
2220.39813 52.4827
2220.46157 121.209
2220.52501 109.536
2220.58845 470.89
2220.6519 731.194
2220.71535 210.975
2220.7788 308.151
2220.84225 163.843
2220.9057 57.2439
2220.96916 79.0568
2221.03262 176.946
2221.09607 57.5
2221.15953 52.3483
2221.223 80.443
2221.28646 155.733
2221.34993 614.647
2221.4134 2440.21
2221.47687 852.792
2221.54034 1028.26
2221.60381 1942.25
2221.66729 579.325
2221.73076 143.962
2221.79424 140.874
2221.85772 219.996
2221.92121 1058.41
2221.98469 1020.7
2222.04818 213.1
2222.11166 184.294
2222.17515 128.006
2222.23865 111.951
2222.30214 75.9972
2222.36563 106.977
2222.42913 51.9983
2222.49263 81.6843
2222.55613 208.694
2222.61963 487.422
2222.68314 586.415
2222.74664 158.565
2222.81015 90.757
2222.87366 95.8084
2222.93717 389.716
2223.00069 587.288
2223.0642 251.343
2223.12772 149.818
2223.19124 68.0751
2223.25476 25.6215
2223.31828 22.939
2223.38181 54.1237
2223.44533 176.779
2223.50886 171.061
2223.57239 44.8061
2223.63592 140.671
2223.69945 369.664
2223.76299 349.188
2223.82653 196.736
2223.89007 174.209
2223.95361 273.46
2224.01715 312.204
2224.08069 192.159
2224.14424 301.884
2224.20779 213.038
2224.27134 49.8163
2224.33489 23.7407
2224.39844 36.4
2224.462 37.9476
2224.52555 72.84
2224.58911 218.373
2224.65267 72.0191
2224.71623 321.178
2224.7798 186714
2224.84337 99.7941
2224.90693 128.519
2224.9705 122.237
2225.03407 155.996
2225.09765 221.153
2225.16122 1943.01
2225.2248 4887.11
2225.28838 466.827
2225.35196 201.189
2225.41554 190.078
2225.47913 193.073
2225.54271 69.234
2225.6063 40.242
2225.66989 67.2242
2225.73348 291.116
2225.79707 1942.28
2225.86067 316.454
2225.92427 281.28
2225.98786 101.804
2226.05147 253.031
2226.11507 217.045
2226.17867 51.448
2226.24228 45.3299
2226.30589 83.7249
2226.3695 238.964
2226.43311 494.626
2226.49672 273.452
2226.56034 766.035
2226.62395 2758.08
2226.68757 942.227
2226.75119 260.058
2226.81481 431.406
2226.87844 531.297
2226.94206 168.946
2227.00569 150.269
2227.06932 686.809
2227.13295 1270.5
2227.19659 2448.9
2227.26022 1297.16
2227.32386 362.076
2227.3875 111.312
2227.45114 63.6277
2227.51478 88.8896
2227.57842 342.426
2227.64207 252.389
2227.70572 288.746
2227.76937 141.806
2227.83302 644.209
2227.89667 311.858
2227.96033 96.6785
2228.02398 169.881
2228.08764 255.065
2228.1513 368.943
2228.21497 140.327
2228.27863 297.833
2228.3423 351.69
2228.40596 372.961
2228.46963 360.556
2228.5333 122.456
2228.59698 35.3182
2228.66065 49.5901
2228.72433 84.6524
2228.78801 219.256
2228.85169 61.5648
2228.91537 32.4689
2228.97906 49.2562
2229.04274 224.781
2229.10643 647.781
2229.17012 128.349
2229.23381 184.204
2229.2975 293.161
2229.3612 64.3167
2229.4249 27.397
2229.4886 58.4445
2229.5523 268.295
2229.616 67.6845
2229.6797 19.1583
2229.74341 13.0689
2229.80712 14.293
2229.87083 36.0812
2229.93454 76.3438
2229.99825 160.993
2230.06197 149.157
2230.12568 96.9638
2230.1894 51.9527
2230.25312 85.6285
2230.31684 354.032
2230.38057 382.494
2230.4443 76.1754
2230.50802 67.0826
2230.57175 158.619
2230.63548 333.169
2230.69922 483.462
2230.76295 960.091
2230.82669 297.059
2230.89043 95.1263
2230.95417 168.954
2231.01791 438.785
2231.08166 145.232
2231.1454 27201.6
2231.20915 188504
2231.2729 330.582
2231.33665 202316
2231.4004 14827.8
2231.46416 336.199
2231.52792 545.798
2231.59168 3705.6
2231.65544 2644.54
2231.7192 480.778
2231.78296 548.824
2231.84673 531.267
2231.9105 219.655
2231.97427 211.804
2232.03804 247.171
2232.10181 187.628
2232.16559 122.891
2232.22936 237.336
2232.29314 1244.46
2232.35692 3184.2
2232.42071 2142.85
2232.48449 1518.41
2232.54828 883.754
2232.61207 254.921
2232.67586 132.466
2232.73965 125.654
2232.80344 292.854
2232.86724 772.252
2232.93103 179.701
2232.99483 191.155
2233.05863 466.024
2233.12243 408.195
2233.18624 338.648
2233.25005 114.946
2233.31385 46.7605
2233.37766 64.337
2233.44148 81.2647
2233.50529 98.5692
2233.5691 299.674
2233.63292 2704.61
2233.69674 2582.6
2233.76056 363.206
2233.82438 336.698
2233.88821 181.145
2233.95203 427.524
2234.01586 238.977
2234.07969 79.4095
2234.14352 74.7598
2234.20736 110.53
2234.27119 343.804
2234.33503 663.863
2234.39887 319.263
2234.46271 119.943
2234.52655 127.026
2234.5904 343.931
2234.65424 1011.94
2234.71809 249.494
2234.78194 67.2017
2234.84579 60.893
2234.90965 51.4953
2234.9735 57.5138
2235.03736 80.6797
2235.10122 269.21
2235.16508 1363.22
2235.22894 717.033
2235.29281 229.454
2235.35667 227.074
2235.42054 125.015
2235.48441 163.388
2235.54828 70.7569
2235.61216 136.605
2235.67603 159.005
2235.73991 417.672
2235.80379 1483.42
2235.86767 301.315
2235.93155 329.791
2235.99544 976.344
2236.05933 928.325
2236.12321 3480.36
2236.1871 336.904
2236.251 176.106
2236.31489 634.6
2236.37879 1154.12
2236.44268 522.63
2236.50658 1128.34
2236.57048 2021.63
2236.63439 1008.74
2236.69829 237.12
2236.7622 217.642
2236.82611 446.274
2236.89002 246.922
2236.95393 310.61
2237.01784 418.838
2237.08176 252.529
2237.14568 93.928
2237.20959 152.056
2237.27352 195.489
2237.33744 424.299
2237.40136 602.704
2237.46529 1991.65
2237.52922 1195.12
2237.59315 746.285
2237.65708 893.351
2237.72102 259.949
2237.78495 153.195
2237.84889 517.039
2237.91283 1859.6
2237.97677 1302.17
2238.04071 705.274
2238.10466 998.283
2238.1686 525.284
2238.23255 236.811
2238.2965 825.054
2238.36046 596.987
2238.42441 115.84
2238.48837 85.9464
2238.55232 50.6171
2238.61628 60.8724
2238.68024 90.4231
2238.74421 442.561
2238.80817 231.771
2238.87214 57.2376
2238.93611 57.5584
2239.00008 63.1093
2239.06405 143.535
2239.12802 288.035
2239.192 143.477
2239.25598 311.095
2239.31996 230.876
2239.38394 229.067
2239.44792 140.732
2239.51191 78.7403
2239.5759 127.872
2239.63988 377.259
2239.70387 1225.42
2239.76787 1381.29
2239.83186 168.042
2239.89586 72.0917
2239.95986 52.6558
2240.02386 55.3958
2240.08786 82.4357
2240.15186 184.432
2240.21587 863.844
2240.27987 3311.62
2240.34388 2673.7
2240.40789 401.662
2240.4719 215.276
2240.53592 871.169
2240.59994 634.142
2240.66395 376.312
2240.72797 413.993
2240.792 297.864
2240.85602 196.283
2240.92004 130.646
2240.98407 446.313
2241.0481 786.382
2241.11213 382.582
2241.17616 669.184
2241.2402 1153.04
2241.30423 404.649
2241.36827 432.705
2241.43231 1680.93
2241.49635 1867.62
2241.5604 1995.95
2241.62444 596.262
2241.68849 1260.47
2241.75254 370.997
2241.81659 153.753
2241.88064 237.413
2241.9447 166.205
2242.00876 92.0505
2242.07281 64.5564
2242.13687 94.6298
2242.20094 167.357
2242.265 97.0778
2242.32907 164.195
2242.39313 1019.66
2242.4572 1227.72
2242.52127 266.366
2242.58535 108.08
2242.64942 119.71
2242.7135 178.34
2242.77758 625.554
2242.84166 780.6
2242.90574 1261.73
2242.96982 882.729
2243.03391 183.338
2243.098 71.6998
2243.16208 57.7282
2243.22618 104.876
2243.29027 192.291
2243.35436 747.17
2243.41846 408.291
2243.48256 465.577
2243.54666 664.208
2243.61076 1002.76
2243.67487 1317.46
2243.73897 1155.84
2243.80308 1868.51
2243.86719 876.334
2243.9313 700.265
2243.99541 3325.56
2244.05953 2635.98
2244.12365 639.291
2244.18776 634.316
2244.25189 1024.76
2244.31601 4209.31
2244.38013 1343.26
2244.44426 300.483
2244.50839 133.819
2244.57252 97.1316
2244.63665 79.3346
2244.70078 82.0965
2244.76492 49.407
2244.82905 25.923
2244.89319 25.0152
2244.95733 41.0508
2245.02148 56.0488
2245.08562 125.543
2245.14977 584.479
2245.21391 650.102
2245.27806 131.907
2245.34222 71.9256
2245.40637 133.622
2245.47052 277.143
2245.53468 281.94
2245.59884 429.949
2245.663 356.425
2245.72716 157.819
2245.79133 216.138
2245.8555 576.715
2245.91966 1246.06
2245.98383 45525.6
2246.04801 48169
2246.11218 2079.79
2246.17635 976.096
2246.24053 1459.68
2246.30471 902.38
2246.36889 1033.49
2246.43307 464.552
2246.49726 1726.48
2246.56145 964.699
2246.62563 729.121
2246.68982 1084.1
2246.75402 1497.38
2246.81821 1328.09
2246.88241 1942.67
2246.9466 995.911
2247.0108 730.256
2247.075 1319.82
2247.13921 5568.55
2247.20341 3538.1
2247.26762 6094.98
2247.33183 2633.45
2247.39604 596.697
2247.46025 759.835
2247.52446 1498.36
2247.58868 641.395
2247.6529 319.635
2247.71712 215.582
2247.78134 111.185
2247.84556 91.5897
2247.90979 181.225
2247.97401 694.143
2248.03824 451.342
2248.10247 451.43
2248.16671 94.6264
2248.23094 84.5524
2248.29518 284.272
2248.35941 360.477
2248.42365 239.605
2248.4879 247.5
2248.55214 241.503
2248.61638 112.768
2248.68063 251.226
2248.74488 349.941
2248.80913 337.452
2248.87338 412.94
2248.93764 559.601
2249.00189 340.352
2249.06615 434.382
2249.13041 840.609
2249.19467 1025.26
2249.25894 180.192
2249.3232 245.552
2249.38747 307.055
2249.45174 194.592
2249.51601 134.617
2249.58028 201.592
2249.64456 901.309
2249.70883 1869.18
2249.77311 2206.35
2249.83739 538.607
2249.90168 205.747
2249.96596 197.299
2250.03024 291.217
2250.09453 257.927
2250.15882 450.857
2250.22311 2230.76
2250.28741 943.518
2250.3517 264.657
2250.416 304.109
2250.4803 542.298
2250.5446 3050.98
2250.6089 2193.19
2250.6732 705.996
2250.73751 356.503
2250.80182 602.362
2250.86613 709.084
2250.93044 1091.26
2250.99475 1305.59
2251.05907 741.149
2251.12338 772.217
2251.1877 578.673
2251.25202 640.876
2251.31634 524.091
2251.38067 213.783
2251.44499 166.626
2251.50932 322.331
2251.57365 668.567
2251.63798 12710.7
2251.70232 91772.3
2251.76665 317.899
2251.83099 281.801
2251.89533 101414
2251.95967 531.242
2252.02401 129.331
2252.08836 183.558
2252.1527 494.771
2252.21705 2248.82
2252.2814 1066.43
2252.34575 697.286
2252.41011 2415.73
2252.47446 1416.98
2252.53882 458.911
2252.60318 272.613
2252.66754 313.218
2252.7319 265.057
2252.79627 279.625
2252.86063 179.178
2252.925 410.01
2252.98937 1171.52
2253.05374 1774.88
2253.11812 830.14
2253.18249 298.905
2253.24687 567.001
2253.31125 1478.66
2253.37563 1075.73
2253.44001 621.967
2253.5044 533.395
2253.56879 752.055
2253.63317 2318.57
2253.69757 1878.89
2253.76196 366.235
2253.82635 456.365
2253.89075 586.947
2253.95515 824.029
2254.01955 4043.89
2254.08395 6974.87
2254.14835 1549.81
2254.21276 684.893
2254.27716 565.637
2254.34157 1013.95
2254.40598 1890.27
2254.47039 731.131
2254.53481 256.339
2254.59922 271.662
2254.66364 1041.31
2254.72806 1453.02
2254.79248 402.872
2254.85691 224.736
2254.92133 490.411
2254.98576 373.424
2255.05019 481.455
2255.11462 722.613
2255.17905 636.78
2255.24349 501.894
2255.30792 414.033
2255.37236 837.727
2255.4368 1917.44
2255.50124 2398.49
2255.56569 1843.4
2255.63013 1541.45
2255.69458 665.258
2255.75903 313.421
2255.82348 397.532
2255.88794 1412.77
2255.95239 2896.34
2256.01685 3884.8
2256.08131 1196.76
2256.14577 927.251
2256.21023 509.079
2256.27469 235.232
2256.33916 294.129
2256.40363 757.978
2256.4681 844.635
2256.53257 536.04
2256.59704 875.666
2256.66152 4894.96
2256.72599 3973.62
2256.79047 1053.95
2256.85495 975.243
2256.91943 3221.69
2256.98392 3323.79
2257.0484 2053.01
2257.11289 4018.11
2257.17738 1396.61
2257.24187 885.977
2257.30637 834.022
2257.37086 852.477
2257.43536 482.818
2257.49986 356.684
2257.56436 849.708
2257.62886 755.987
2257.69337 420.049
2257.75787 465.766
2257.82238 359.33
2257.88689 1453.71
2257.9514 2382.45
2258.01592 594.507
2258.08043 822.238
2258.14495 787.035
2258.20947 788.457
2258.27399 334.577
2258.33852 371.969
2258.40304 1684.63
2258.46757 3638.1
2258.5321 1132.54
2258.59663 358.919
2258.66116 138.574
2258.72569 114.229
2258.79023 217.498
2258.85477 668.304
2258.91931 335.627
2258.98385 167.639
2259.04839 230.772
2259.11294 219.355
2259.17748 767.464
2259.24203 586.189
2259.30658 163.439
2259.37113 157.745
2259.43569 253.404
2259.50024 813.66
2259.5648 939.896
2259.62936 397.297
2259.69392 425.806
2259.75849 251.854
2259.82305 297.184
2259.88762 1045.5
2259.95219 1093.04
2260.01676 1196.92
2260.08133 1205.86
2260.14591 1503.53
2260.21049 1354.76
2260.27506 1763.18
2260.33964 1322.73
2260.40423 617.594
2260.46881 494.51
2260.5334 283.484
2260.59798 523.197
2260.66257 345.339
2260.72716 281.093
2260.79176 964.751
2260.85635 1921
2260.92095 1795.35
2260.98555 1846.64
2261.05015 7402.24
2261.11475 4812.56
2261.17935 871.877
2261.24396 677.062
2261.30857 2461.93
2261.37318 2182.38
2261.43779 616.986
2261.5024 817.662
2261.56702 800.352
2261.63164 1512.83
2261.69625 8674.7
2261.76088 8228.47
2261.8255 1440.78
2261.89012 773.883
2261.95475 877.254
2262.01938 2986.85
2262.08401 2726.17
2262.14864 1642.11
2262.21327 3165.32
2262.27791 1611.61
2262.34255 960.793
2262.40719 4902.46
2262.47183 5258.54
2262.53647 998.725
2262.60111 467.411
2262.66576 294.19
2262.73041 175.585
2262.79506 160.163
2262.85971 112.419
2262.92437 155.505
2262.98902 139.894
2263.05368 98.5098
2263.11834 82.9081
2263.183 182.845
2263.24766 310.49
2263.31233 211.372
2263.377 389.886
2263.44166 732.969
2263.50634 4792.16
2263.57101 3005.86
2263.63568 702.836
2263.70036 1113.4
2263.76504 4887.77
2263.82972 2748.78
2263.8944 1432.67
2263.95908 1766.05
2264.02377 633.606
2264.08845 341.456
2264.15314 276.605
2264.21783 434.119
2264.28253 1628.61
2264.34722 2560.08
2264.41192 930.998
2264.47662 538.68
2264.54132 389.076
2264.60602 839.628
2264.67072 3505.46
2264.73543 8871.9
2264.80014 2515.38
2264.86485 4342.56
2264.92956 3092.79
2264.99427 2663.94
2265.05899 872.246
2265.1237 1633
2265.18842 943.496
2265.25314 1284.51
2265.31787 460.752
2265.38259 419.742
2265.44732 655.535
2265.51204 502.163
2265.57677 327.015
2265.64151 200.444
2265.70624 105.07
2265.77097 138.399
2265.83571 303.57
2265.90045 401.662
2265.96519 328.074
2266.02993 331.895
2266.09468 119.325
2266.15943 172.534
2266.22417 723.416
2266.28892 380.102
2266.35368 111.124
2266.41843 270.034
2266.48319 441.462
2266.54794 150.04
2266.6127 177.27
2266.67746 662.857
2266.74223 237.403
2266.80699 267.65
2266.87176 642.579
2266.93653 619.76
2267.0013 656.083
2267.06607 628.396
2267.13084 142.213
2267.19562 134.219
2267.2604 348.122
2267.32518 477.836
2267.38996 1892.18
2267.45474 1861.63
2267.51953 924.551
2267.58432 1735.01
2267.64911 682.23
2267.7139 761.001
2267.77869 1243.39
2267.84348 969.951
2267.90828 1326.76
2267.97308 845.538
2268.03788 408.971
2268.10268 787.226
2268.16748 2160.81
2268.23229 8309.06
2268.2971 3421.05
2268.36191 1787.17
2268.42672 1151.71
2268.49153 1013.53
2268.55635 4197.2
2268.62116 8865.75
2268.68598 9762.57
2268.7508 4284.67
2268.81562 6412.65
2268.88045 1955.03
2268.94527 4151.83
2269.0101 14299.2
2269.07493 22807.6
2269.13976 845.52
2269.2046 357.254
2269.26943 385.174
2269.33427 769.299
2269.39911 744.77
2269.46395 536.517
2269.52879 637.613
2269.59364 583.859
2269.65848 662.315
2269.72333 630.426
2269.78818 711.444
2269.85303 285.589
2269.91789 688.195
2269.98274 529.113
2270.0476 320.282
2270.11246 724.845
2270.17732 495.912
2270.24219 577.713
2270.30705 3293.54
2270.37192 5388.03
2270.43679 7159.43
2270.50166 3646.51
2270.56653 826.502
2270.6314 345.458
2270.69628 276.222
2270.76116 159.928
2270.82604 137.267
2270.89092 139.145
2270.9558 536.548
2271.02069 632.55
2271.08557 207.997
2271.15046 153.263
2271.21535 138.003
2271.28025 250.224
2271.34514 150.189
2271.41004 193.167
2271.47494 860.131
2271.53984 2549.58
2271.60474 1427.95
2271.66964 1014.45
2271.73455 676.488
2271.79946 741.636
2271.86437 695.833
2271.92928 744.692
2271.99419 479.572
2272.05911 1564.3
2272.12402 1413.36
2272.18894 1285.67
2272.25386 1596.34
2272.31878 1310.13
2272.38371 3590.41
2272.44864 10038.6
2272.51356 5614.38
2272.57849 1981.12
2272.64342 2034.21
2272.70836 1746.59
2272.77329 560.219
2272.83823 1041.83
2272.90317 532.127
2272.96811 311.073
2273.03305 142.385
2273.098 293.385
2273.16295 686.039
2273.22789 600.976
2273.29284 176.932
2273.3578 245.999
2273.42275 290.734
2273.48771 571.548
2273.55266 3110.6
2273.61762 3373.98
2273.68258 758.079
2273.74755 761.501
2273.81251 453.985
2273.87748 127.982
2273.94245 103.159
2274.00742 31737.1
2274.07239 8616.68
2274.13737 148.18
2274.20234 177.265
2274.26732 291.78
2274.3323 39932.2
2274.39728 288.718
2274.46227 302.61
2274.52725 301.096
2274.59224 202.196
2274.65723 367.224
2274.72222 1472.61
2274.78721 4875.43
2274.85221 2087.05
2274.9172 1049.04
2274.9822 451.551
2275.0472 356.892
2275.11221 819.762
2275.17721 869.101
2275.24222 882.998
2275.30722 854.749
2275.37223 2941.59
2275.43725 13416.1
2275.50226 5427.26
2275.56727 2565.5
2275.63229 6584.33
2275.69731 9471.68
2275.76233 2080.17
2275.82735 3514.17
2275.89238 11115
2275.9574 5394.55
2276.02243 1982.21
2276.08746 1021.45
2276.1525 736.395
2276.21753 381.079
2276.28256 361.66
2276.3476 454.3
2276.41264 1167.06
2276.47768 6066.62
2276.54273 7154.11
2276.60777 1587.71
2276.67282 944.001
2276.73787 1156.85
2276.80292 632.817
2276.86797 581.342
2276.93302 1430.96
2276.99808 1713.98
2277.06314 595.715
2277.1282 1108.13
2277.19326 6315.97
2277.25832 7102.67
2277.32339 1591.55
2277.38846 738.175
2277.45353 848.023
2277.5186 413.973
2277.58367 420.113
2277.64874 269.666
2277.71382 114.447
2277.7789 96.5364
2277.84398 177.864
2277.90906 551.552
2277.97415 614.835
2278.03923 671.712
2278.10432 1048.46
2278.16941 2894.7
2278.2345 1432.73
2278.29959 1059.14
2278.36469 731.843
2278.42979 194.823
2278.49489 227.621
2278.55999 500.058
2278.62509 368.04
2278.69019 216.491
2278.7553 615.663
2278.82041 1822.87
2278.88552 608.769
2278.95063 214.279
2279.01574 161.294
2279.08086 112.516
2279.14598 136.318
2279.2111 461.372
2279.27622 373.457
2279.34134 380.924
2279.40647 188.444
2279.47159 145.1
2279.53672 416.795
2279.60185 162.809
2279.66698 114.424
2279.73212 118.665
2279.79725 277.365
2279.86239 411.471
2279.92753 225.145
2279.99267 312.793
2280.05782 160.435
2280.12296 156.627
2280.18811 360.342
2280.25326 901.961
2280.31841 1747.31
2280.38356 510.576
2280.44872 607.747
2280.51387 1418.12
2280.57903 4592.97
2280.64419 2722.41
2280.70936 1580.74
2280.77452 7862.71
2280.83969 17392.3
2280.90485 4353
2280.97002 1141.28
2281.03519 510.51
2281.10037 382.447
2281.16554 531.596
2281.23072 237.896
2281.2959 139.572
2281.36108 134.264
2281.42626 202.252
2281.49145 490.278
2281.55663 2390.78
2281.62182 1774.92
2281.68701 587.824
2281.7522 758.195
2281.8174 1291
2281.88259 674.133
2281.94779 934.758
2282.01299 518.754
2282.07819 196.925
2282.14339 189.512
2282.2086 182.304
2282.27381 385.463
2282.33902 556.654
2282.40423 459.861
2282.46944 1141.04
2282.53465 888.976
2282.59987 1145.47
2282.66509 2418.06
2282.73031 6377.45
2282.79553 8653.34
2282.86075 2992.14
2282.92598 8184.64
2282.99121 9173.75
2283.05643 10263.9
2283.12167 3644.32
2283.1869 2789.17
2283.25213 2281.9
2283.31737 2452.48
2283.38261 755.35
2283.44785 325.103
2283.51309 241.448
2283.57834 303.655
2283.64358 432.97
2283.70883 536.179
2283.77408 673.296
2283.83933 1874.17
2283.90458 3668.89
2283.96984 14012.6
2284.0351 10804.5
2284.10036 2114.2
2284.16562 1581.99
2284.23088 2724.07
2284.29614 1139.92
2284.36141 906.086
2284.42668 474.974
2284.49195 546.24
2284.55722 364.019
2284.6225 307.344
2284.68777 345.289
2284.75305 356.869
2284.81833 268.475
2284.88361 302.801
2284.94889 1274.59
2285.01418 2689.31
2285.07947 695.989
2285.14476 581.892
2285.21005 884.64
2285.27534 2153.18
2285.34063 10453.3
2285.40593 9304.09
2285.47123 1902.86
2285.53653 628.272
2285.60183 798.047
2285.66713 850.977
2285.73244 1558.42
2285.79775 1575.47
2285.86306 524.723
2285.92837 269.805
2285.99368 209.915
2286.059 125.061
2286.12431 237.297
2286.18963 353.271
2286.25495 227.415
2286.32027 555.228
2286.3856 379.067
2286.45093 306.87
2286.51625 361.891
2286.58158 1027.95
2286.64692 2119.01
2286.71225 2163.05
2286.77758 931.241
2286.84292 1143.57
2286.90826 1002.9
2286.9736 1402.28
2287.03895 1257.8
2287.10429 325.776
2287.16964 200.341
2287.23499 241.844
2287.30034 458.827
2287.36569 427.91
2287.43104 840.241
2287.4964 412.234
2287.56176 1148.37
2287.62712 1467.03
2287.69248 2429.94
2287.75784 2059.14
2287.82321 1246.89
2287.88857 585.997
2287.95394 296.405
2288.01932 200.137
2288.08469 168.933
2288.15006 510.348
2288.21544 714.504
2288.28082 1691.48
2288.3462 1404.4
2288.41158 970.821
2288.47696 1246.37
2288.54235 648.261
2288.60774 421.899
2288.67313 571.543
2288.73852 606.882
2288.80391 170.642
2288.86931 196.243
2288.93471 429.357
2289.00011 959.161
2289.06551 1367.85
2289.13091 921.955
2289.19631 656.607
2289.26172 600.858
2289.32713 1112.74
2289.39254 5303.42
2289.45795 9954.08
2289.52336 6404.15
2289.58878 1570.79
2289.6542 2063.65
2289.71962 1667.39
2289.78504 1787.53
2289.85046 7004.94
2289.91589 17916
2289.98132 10364.7
2290.04674 4361.94
2290.11218 1490.41
2290.17761 3896.37
2290.24304 6519.36
2290.30848 2208.8
2290.37392 1740.46
2290.43936 950.318
2290.5048 506.212
2290.57024 1000.63
2290.63569 791.493
2290.70114 535.905
2290.76659 832.41
2290.83204 422.519
2290.89749 563.544
2290.96295 1864.6
2291.0284 2310.4
2291.09386 4107.9
2291.15932 2179
2291.22479 812.908
2291.29025 3679.73
2291.35572 4344.61
2291.42118 713.268
2291.48665 705.636
2291.55213 1774.46
2291.6176 3710.83
2291.68308 2118.22
2291.74855 461.098
2291.81403 467.361
2291.87951 635.984
2291.945 2930.42
2292.01048 4810
2292.07597 865.419
2292.14146 701.139
2292.20695 2881.51
2292.27244 4322.32
2292.33794 4376.89
2292.40343 4736.96
2292.46893 8042.33
2292.53443 6216.02
2292.59993 3029.69
2292.66544 1288.23
2292.73094 1811.11
2292.79645 1209.91
2292.86196 396.121
2292.92747 341.922
2292.99298 1081.88
2293.0585 809.616
2293.12402 488.886
2293.18953 507.893
2293.25506 564.127
2293.32058 515.281
2293.3861 541.341
2293.45163 1389.08
2293.51716 1774
2293.58269 869.051
2293.64822 1455.99
2293.71375 1428.15
2293.77929 4168.65
2293.84483 11249.3
2293.91036 5085.11
2293.97591 11518.6
2294.04145 2103.5
2294.10699 1615.54
2294.17254 699.091
2294.23809 395.465
2294.30364 586.316
2294.36919 901.893
2294.43475 1913.94
2294.5003 2016.53
2294.56586 2004.59
2294.63142 2651.32
2294.69698 1214.28
2294.76255 1594.82
2294.82811 3422.28
2294.89368 11003.4
2294.95925 9198.06
2295.02482 5057.93
2295.09039 2098.59
2295.15597 3554.67
2295.22154 3870.43
2295.28712 1416.79
2295.3527 1356.94
2295.41829 983.208
2295.48387 2118.38
2295.54946 15996.1
2295.61505 10625.1
2295.68064 6596.8
2295.74623 6016.6
2295.81182 7025.25
2295.87742 1775.82
2295.94301 1240.92
2296.00861 1836.59
2296.07421 5997.07
2296.13982 3868.12
2296.20542 6131.51
2296.27103 3214.25
2296.33664 1699.58
2296.40225 560.452
2296.46786 853.637
2296.53347 1217.79
2296.59909 2178.44
2296.66471 2286.62
2296.73033 3131.33
2296.79595 1154.99
2296.86157 1867.7
2296.9272 2014.74
2296.99283 737.22
2297.05846 278.209
2297.12409 465.341
2297.18972 586.596
2297.25536 247.592
2297.32099 237.998
2297.38663 739.504
2297.45227 465.78
2297.51791 425.24
2297.58356 343.482
2297.6492 330.935
2297.71485 705.087
2297.7805 1102.37
2297.84615 485.352
2297.91181 443.719
2297.97746 2080.53
2298.04312 3526.78
2298.10878 1113.28
2298.17444 2052.71
2298.2401 5225.49
2298.30577 10601
2298.37144 14799.1
2298.43711 6452.05
2298.50278 7435.69
2298.56845 7137.95
2298.63412 4231.5
2298.6998 1631.96
2298.76548 14021.4
2298.83116 3344.75
2298.89684 5554.97
2298.96252 6977.97
2299.02821 1440.96
2299.0939 853.202
2299.15958 1745.63
2299.22528 1709.12
2299.29097 1172.06
2299.35666 4552.93
2299.42236 10954.6
2299.48806 2466.1
2299.55376 796.626
2299.61946 695.854
2299.68517 670.369
2299.75087 683.207
2299.81658 1953.17
2299.88229 1100.85
2299.948 885.186
2300.01372 4217.35
2300.07943 5270.02
2300.14515 5081.31
2300.21087 6290.4
2300.27659 5291.5
2300.34231 6025.42
2300.40804 1609.19
2300.47377 1024.96
2300.53949 2863.23
2300.60523 3845.68
2300.67096 2944.01
2300.73669 8714.21
2300.80243 4467.02
2300.86817 2895.84
2300.93391 3652.37
2300.99965 2318.67
2301.06539 1971.03
2301.13114 1920.79
2301.19689 1679.78
2301.26263 810.4
2301.32839 290.438
2301.39414 443.739
2301.45989 1341.98
2301.52565 1703.85
2301.59141 1114.88
2301.65717 562.799
2301.72293 1059.71
2301.7887 2653.16
2301.85446 671.542
2301.92023 665.619
2301.986 554.148
2302.05177 617.603
2302.11755 3095.71
2302.18332 4716.43
2302.2491 2725.91
2302.31488 1652.51
2302.38066 707.969
2302.44645 994.501
2302.51223 1237.81
2302.57802 2463.26
2302.64381 4021.84
2302.7096 3285.51
2302.77539 4478.57
2302.84118 2337.4
2302.90698 675.06
2302.97278 682.336
2303.03858 986.756
2303.10438 1339.82
2303.17019 786.722
2303.23599 821.206
2303.3018 1730.91
2303.36761 1497.95
2303.43342 2283.62
2303.49923 3743.41
2303.56505 7606.77
2303.63087 5717.65
2303.69668 3076.22
2303.76251 5660.67
2303.82833 3408.5
2303.89415 7243.68
2303.95998 3005.47
2304.02581 937.403
2304.09164 1436.25
2304.15747 1943.4
2304.2233 964.276
2304.28914 1174.59
2304.35498 4396.44
2304.42082 14074.4
2304.48666 6463.05
2304.5525 2947.4
2304.61835 3417.87
2304.68419 2305.36
2304.75004 1664.89
2304.81589 1099.89
2304.88175 2607.96
2304.9476 5831.86
2305.01346 1802.7
2305.07932 553.149
2305.14518 361.536
2305.21104 307.848
2305.2769 327.317
2305.34277 685.178
2305.40864 3087.15
2305.47451 6505.72
2305.54038 4411.55
2305.60625 1917.1
2305.67213 1419.98
2305.73801 1234.33
2305.80388 897.642
2305.86977 413.936
2305.93565 831.786
2306.00153 2788.77
2306.06742 3080.51
2306.13331 1865.1
2306.1992 564.568
2306.26509 939.153
2306.33099 2028.52
2306.39688 775.025
2306.46278 973.215
2306.52868 3741.18
2306.59458 7815.24
2306.66049 1608.19
2306.72639 610.046
2306.7923 794.778
2306.85821 1443.62
2306.92412 623.001
2306.99003 1677.8
2307.05595 958.81
2307.12186 593.268
2307.18778 335.847
2307.2537 394.247
2307.31963 571.366
2307.38555 1263.13
2307.45148 6142.66
2307.5174 20239.5
2307.58333 6637.61
2307.64927 6779.26
2307.7152 2115.11
2307.78114 691.103
2307.84707 460.438
2307.91301 679.775
2307.97895 731.388
2308.0449 2477.99
2308.11084 946.209
2308.17679 331.267
2308.24274 530.913
2308.30869 732.449
2308.37464 1910.69
2308.4406 630.597
2308.50655 183.802
2308.57251 146.439
2308.63847 217.257
2308.70443 701.386
2308.7704 924.713
2308.83636 1382.37
2308.90233 789.126
2308.9683 2626.93
2309.03427 1252.98
2309.10024 619.578
2309.16622 595.645
2309.2322 289.111
2309.29818 494.288
2309.36416 2193.28
2309.43014 5176.28
2309.49612 1040.78
2309.56211 551.907
2309.6281 2094.53
2309.69409 4863.23
2309.76008 700.193
2309.82608 343.54
2309.89207 447.577
2309.95807 2157.74
2310.02407 2800.11
2310.09007 722.541
2310.15607 1373.99
2310.22208 342.592
2310.28809 472.561
2310.3541 286.639
2310.42011 207.23
2310.48612 126.972
2310.55213 83.1001
2310.61815 120.398
2310.68417 318.548
2310.75019 461.061
2310.81621 327.829
2310.88224 91.6212
2310.94826 66.1739
2311.01429 99.9173
2311.08032 111.514
2311.14635 100.284
2311.21239 121.367
2311.27842 184.664
2311.34446 168.617
2311.4105 172.804
2311.47654 195.733
2311.54258 268.421
2311.60863 1413.45
2311.67468 2431.92
2311.74072 338.623
2311.80678 241.729
2311.87283 671.201
2311.93888 941.189
2312.00494 343.139
2312.071 726.745
2312.13706 3765.94
2312.20312 5769.25
2312.26918 975.311
2312.33525 343.82
2312.40132 213.348
2312.46739 182.179
2312.53346 93.9249
2312.59953 71.1031
2312.66561 61.0217
2312.73168 63.6295
2312.79776 66.0172
2312.86384 49.8561
2312.92993 48.0134
2312.99601 65.409
2313.0621 103.036
2313.12819 96.9277
2313.19428 77.8372
2313.26037 47.8468
2313.32646 47.3686
2313.39256 73.6895
2313.45866 140.524
2313.52476 279.041
2313.59086 178.877
2313.65696 115.071
2313.72307 146.834
2313.78917 60.9631
2313.85528 73.2314
2313.92139 64.5612
2313.98751 121.458
2314.05362 106.609
2314.11974 52.7008
2314.18586 45.2821
2314.25198 43.908
2314.3181 44.5113
2314.38422 46.7587
2314.45035 52.7025
2314.51648 89.4917
2314.58261 125.273
2314.64874 270.499
2314.71487 304.206
2314.78101 131.247
2314.84715 184.293
2314.91329 428.278
2314.97943 2934.64
2315.04557 989.963
2315.11172 277.199
2315.17786 139.233
2315.24401 140.083
2315.31016 263.783
2315.37632 271.08
2315.44247 126.273
2315.50863 130.163
2315.57479 172.425
2315.64095 297.109
2315.70711 1226.88
2315.77327 2200.28
2315.83944 2969.02
2315.90561 3195.39
2315.97177 3906.36
2316.03795 5164.02
2316.10412 6499.11
2316.1703 5144.76
2316.23647 7183.74
2316.30265 4585.67
2316.36883 3124.21
2316.43502 7864.98
2316.5012 4772.35
2316.56739 12845
2316.63358 17863.7
2316.69977 7258.58
2316.76596 13071.2
2316.83215 11277.9
2316.89835 12980.6
2316.96455 23742.2
2317.03075 11004.5
2317.09695 20591.6
2317.16315 22178.5
2317.22936 9459
2317.29557 17346.9
2317.36177 9465.29
2317.42799 3175.1
2317.4942 5280.8
2317.56041 3246.24
2317.62663 8119.12
2317.69285 11710.9
2317.75907 13267.3
2317.82529 10097.3
2317.89152 9327.08
2317.95774 11107
2318.02397 6777.16
2318.0902 8452.45
2318.15644 3980.17
2318.22267 11933.1
2318.2889 9021.46
2318.35514 2816.78
2318.42138 4839.67
2318.48762 13800.9
2318.55387 6494.99
2318.62011 8235.39
2318.68636 8552.43
2318.75261 4567.26
2318.81886 4189.33
2318.88511 1671.89
2318.95137 1746.12
2319.01762 2711.97
2319.08388 2437.96
2319.15014 4944.9
2319.21641 5149.93
2319.28267 2669.99
2319.34894 2460.48
2319.4152 2305.62
2319.48147 2386.44
2319.54775 9117.05
2319.61402 8431.48
2319.6803 2501.84
2319.74657 2605.83
2319.81285 2577.57
2319.87913 5932.75
2319.94542 5324.15
2320.0117 2080.33
2320.07799 1281.61
2320.14428 1906.9
2320.21057 3253.75
2320.27686 2380.22
2320.34316 4717.55
2320.40945 2566.45
2320.47575 1385.58
2320.54205 960.807
2320.60835 3631.4
2320.67466 5697.05
2320.74096 4483.61
2320.80727 2883.83
2320.87358 7899.2
2320.93989 1835.87
2321.00621 1468.53
2321.07252 3059.63
2321.13884 1854.43
2321.20516 1562.08
2321.27148 570.024
2321.3378 646.944
2321.40413 1542.25
2321.47045 4558.96
2321.53678 3065.9
2321.60311 1691.04
2321.66945 1024.66
2321.73578 2018.24
2321.80212 6039.33
2321.86845 8745.63
2321.93479 48679.9
2322.00114 24865.4
2322.06748 5842.24
2322.13383 4255.79
2322.20017 1592.66
2322.26652 981.404
2322.33287 903.32
2322.39923 1061.32
2322.46558 3090.99
2322.53194 5978.1
2322.5983 10836.4
2322.66466 24297.3
2322.73102 7513.56
2322.79739 2983.06
2322.86375 2228.33
2322.93012 2501.94
2322.99649 2150.61
2323.06287 3595.85
2323.12924 9891.78
2323.19562 11379.2
2323.26199 21096.9
2323.32837 7843.47
2323.39475 1560.16
2323.46114 890.416
2323.52752 1055.99
2323.59391 1307.56
2323.6603 1246.24
2323.72669 1449.65
2323.79309 3777.28
2323.85948 7209.69
2323.92588 3902.1
2323.99228 2671.63
2324.05868 3215.49
2324.12508 1010.21
2324.19148 1115.15
2324.25789 1139.17
2324.3243 587.759
2324.39071 519.175
2324.45712 814.807
2324.52354 1657.5
2324.58995 475.823
2324.65637 206.266
2324.72279 3516.28
2324.78921 389.47
2324.85563 1819.84
2324.92206 1408.76
2324.98849 699.728
2325.05492 1225.33
2325.12135 903.202
2325.18778 4549.54
2325.25421 1722.91
2325.32065 3549.59
2325.38709 9806.53
2325.45353 2970.21
2325.51997 3546.34
2325.58642 4215.72
2325.65286 3094.14
2325.71931 3647
2325.78576 965.07
2325.85221 418.664
2325.91867 275.924
2325.98512 284.648
2326.05158 340.906
2326.11804 342.407
2326.1845 792.007
2326.25097 850.067
2326.31743 1079.06
2326.3839 5124.26
2326.45037 4309.6
2326.51684 2219.78
2326.58331 2561.62
2326.64979 964.254
2326.71626 842.747
2326.78274 1581.98
2326.84922 1278.4
2326.9157 1192.06
2326.98219 652.553
2327.04867 511.173
2327.11516 598.718
2327.18165 443.109
2327.24814 285.465
2327.31464 291.706
2327.38113 355.667
2327.44763 497.798
2327.51413 548.101
2327.58063 511.101
2327.64713 1656.52
2327.71364 1256.54
2327.78015 991.659
2327.84666 2640.44
2327.91317 852.697
2327.97968 441.577
2328.04619 312.147
2328.11271 354.278
2328.17923 420.731
2328.24575 618.323
2328.31227 936.117
2328.3788 1835.43
2328.44532 10093.2
2328.51185 27505
2328.57838 18363.4
2328.64491 5408.09
2328.71145 1453.7
2328.77798 1060.53
2328.84452 1213.36
2328.91106 824.789
2328.9776 1655.87
2329.04414 4131.62
2329.11069 2493.42
2329.17723 928.56
2329.24378 1719.29
2329.31033 4854.31
2329.37689 3364.62
2329.44344 927.107
2329.51 966.094
2329.57656 2444.47
2329.64312 1836.47
2329.70968 1006.4
2329.77624 799.125
2329.84281 289.835
2329.90938 210.564
2329.97595 239.846
2330.04252 210.412
2330.10909 385.793
2330.17567 1922.97
2330.24224 716.391
2330.30882 345.708
2330.3754 263.356
2330.44199 325.008
2330.50857 1134.5
2330.57516 3980.64
2330.64175 2508.6
2330.70834 945.975
2330.77493 1168.85
2330.84153 4974.89
2330.90812 6095
2330.97472 1326.75
2331.04132 1420.18
2331.10792 2812.58
2331.17453 4461.24
2331.24113 6276.94
2331.30774 1085.73
2331.37435 744.783
2331.44096 935.149
2331.50758 1061.19
2331.57419 3602.49
2331.64081 12313
2331.70743 8506.74
2331.77405 7254.86
2331.84067 4454.98
2331.9073 4243.17
2331.97392 1809.28
2332.04055 1251.8
2332.10718 2591.46
2332.17382 3386.12
2332.24045 4778.9
2332.30709 4242.6
2332.37373 1071.14
2332.44037 1157.54
2332.50701 1566.5
2332.57365 1718.7
2332.6403 2182.76
2332.70695 1762.65
2332.7736 2063.56
2332.84025 3602.58
2332.9069 2298.16
2332.97356 1683
2333.04021 457.917
2333.10687 276.354
2333.17353 466.88
2333.2402 844.906
2333.30686 555.192
2333.37353 602.322
2333.4402 1344.64
2333.50687 1065.87
2333.57354 1603.47
2333.64022 2215.3
2333.70689 1702.47
2333.77357 807.394
2333.84025 750.652
2333.90693 2720.49
2333.97362 9525.26
2334.0403 4655.68
2334.10699 1859.2
2334.17368 1625.07
2334.24037 1045.44
2334.30706 1806.64
2334.37376 1629.2
2334.44046 3706.31
2334.50716 3734.51
2334.57386 1121.82
2334.64056 1292.82
2334.70727 1790.35
2334.77397 2245.42
2334.84068 5103.54
2334.90739 9546.26
2334.97411 5707.54
2335.04082 3985.88
2335.10754 12466.5
2335.17425 8435.17
2335.24097 2625.54
2335.3077 2868.07
2335.37442 1415.91
2335.44115 636.524
2335.50787 1537.57
2335.5746 1755.83
2335.64134 483.841
2335.70807 376.404
2335.7748 529.807
2335.84154 1839.43
2335.90828 3187.14
2335.97502 7162.56
2336.04177 6330.42
2336.10851 7439.85
2336.17526 4665
2336.24201 3511.86
2336.30876 2923.05
2336.37551 1022.92
2336.44226 692.476
2336.50902 845.209
2336.57578 2207.15
2336.64254 2402.26
2336.7093 1285.09
2336.77607 2341.49
2336.84283 2028.32
2336.9096 3336.56
2336.97637 1157.98
2337.04314 433.944
2337.10991 1047.92
2337.17669 957.852
2337.24347 1027.85
2337.31025 645.48
2337.37703 3145.75
2337.44381 3808.5
2337.5106 632.015
2337.57738 723.52
2337.64417 2193.57
2337.71096 897.806
2337.77776 1014.38
2337.84455 2343.36
2337.91135 2227.6
2337.97815 1169.12
2338.04495 1149.81
2338.11175 4381.13
2338.17855 6996.5
2338.24536 11091.3
2338.31217 10554.9
2338.37898 5321.66
2338.44579 2659.51
2338.5126 2427.84
2338.57942 5774
2338.64623 7232.59
2338.71305 4570.16
2338.77988 6606.23
2338.8467 14994.1
2338.91352 14357.6
2338.98035 5069.07
2339.04718 3677.82
2339.11401 3745.16
2339.18084 2781.79
2339.24768 1098.4
2339.31451 1417.44
2339.38135 1187.99
2339.44819 3787.36
2339.51504 5384.6
2339.58188 4324.61
2339.64873 6030.06
2339.71557 2748.14
2339.78242 3112.3
2339.84928 12307.2
2339.91613 15414.8
2339.98299 16699.5
2340.04984 11099.8
2340.1167 19830.3
2340.18356 7841.95
2340.25043 5582.27
2340.31729 18023.4
2340.38416 40413.5
2340.45103 10369.5
2340.5179 3361.27
2340.58477 2979.4
2340.65165 1997.82
2340.71852 4183.01
2340.7854 4994.65
2340.85228 4244.67
2340.91917 4976.2
2340.98605 5751.65
2341.05294 13194.1
2341.11982 20534.8
2341.18672 20210.7
2341.25361 6320.21
2341.3205 8801.18
2341.3874 12049.4
2341.45429 8061.96
2341.52119 6253.62
2341.5881 5020.9
2341.655 3542.89
2341.7219 4334.85
2341.78881 1957.49
2341.85572 2366.53
2341.92263 4817.67
2341.98955 24590.7
2342.05646 70776.5
2342.12338 15846.6
2342.1903 3699.09
2342.25722 1759.62
2342.32414 1247.12
2342.39106 1338.28
2342.45799 5963.15
2342.52492 9031.82
2342.59185 1959.81
2342.65878 817.387
2342.72571 1712.1
2342.79265 3632.15
2342.85959 2496.42
2342.92653 1750.34
2342.99347 4009.99
2343.06041 1474.99
2343.12736 1754.4
2343.19431 2251.37
2343.26126 8220.13
2343.32821 6581.38
2343.39516 3151.17
2343.46212 7601.74
2343.52907 7403.7
2343.59603 2185.18
2343.66299 4395.17
2343.72996 7305.28
2343.79692 9643.78
2343.86389 10179.4
2343.93086 2455.4
2343.99783 1028.08
2344.0648 636.313
2344.13177 783.161
2344.19875 809.922
2344.26573 749.115
2344.33271 1017.89
2344.39969 3226.59
2344.46667 3543.63
2344.53366 3525.63
2344.60065 3588.95
2344.66763 3263.02
2344.73463 9727.98
2344.80162 12195.1
2344.86861 9417.4
2344.93561 11392.3
2345.00261 18826.5
2345.06961 26687.6
2345.13662 7385.65
2345.20362 4523.97
2345.27063 3207.17
2345.33764 6742.5
2345.40465 8229.98
2345.47166 7691.44
2345.53867 3751.33
2345.60569 5650.93
2345.67271 4192.6
2345.73973 3585.87
2345.80675 7956.19
2345.87377 4483.45
2345.9408 6186.9
2346.00783 4262.65
2346.07486 1572.29
2346.14189 1646.75
2346.20892 1093.56
2346.27596 1206.7
2346.343 2060.43
2346.41003 3585.75
2346.47708 12465.8
2346.54412 6090.4
2346.61116 2004.38
2346.67821 4481.61
2346.74526 12487
2346.81231 16786.4
2346.87936 4871.38
2346.94642 3651.11
2347.01348 2964.24
2347.08053 1872.22
2347.14759 4241.23
2347.21466 6931.4
2347.28172 2110.67
2347.34879 2438.82
2347.41585 8455.13
2347.48292 7970.71
2347.55 12163
2347.61707 16536.3
2347.68415 13021.3
2347.75122 3961.75
2347.8183 6682.9
2347.88538 3372.01
2347.95247 4808.19
2348.01955 11718.4
2348.08664 15385.7
2348.15373 21085.4
2348.22082 12106.2
2348.28791 4562.22
2348.35501 2815.84
2348.42211 9502
2348.4892 15204.5
2348.55631 6485.48
2348.62341 2691.97
2348.69051 1829.62
2348.75762 3907.41
2348.82473 3030.3
2348.89184 1102.06
2348.95895 944.827
2349.02606 2663.22
2349.09318 5347.66
2349.1603 2331.99
2349.22742 4037.85
2349.29454 16225.3
2349.36166 6031.74
2349.42879 4557.7
2349.49592 2767.71
2349.56305 2110.21
2349.63018 3993.46
2349.69731 13869.4
2349.76444 61448.1
2349.83158 18697.1
2349.89872 5760.06
2349.96586 6650.51
2350.033 2413.07
2350.10015 1758.37
2350.1673 2275.83
2350.23444 4996.02
2350.3016 5974.91
2350.36875 22265.2
2350.4359 32630.4
2350.50306 17278.9
2350.57022 4956
2350.63738 5853.2
2350.70454 9416.32
2350.7717 8912.62
2350.83887 17034.4
2350.90604 24288.4
2350.97321 27752.6
2351.04038 16373.5
2351.10755 4927.53
2351.17473 2206.71
2351.2419 1741.5
2351.30908 1954.61
2351.37626 2286.22
2351.44345 3945.24
2351.51063 7326.55
2351.57782 24513
2351.64501 94176.8
2351.7122 37521.8
2351.77939 10241.9
2351.84659 6226.63
2351.91378 8551.77
2351.98098 10234.9
2352.04818 18571.1
2352.11538 12417.5
2352.18259 7249.17
2352.24979 10940.2
2352.317 15324.6
2352.38421 52261.3
2352.45142 130472
2352.51864 51066.4
2352.58585 38894.7
2352.65307 20516.4
2352.72029 8020.76
2352.78751 6270.51
2352.85474 3660.55
2352.92196 2975.19
2352.98919 2130.53
2353.05642 2733.42
2353.12365 2472.9
2353.19088 6819.62
2353.25812 19051
2353.32535 7665.06
2353.39259 13752.5
2353.45983 12225.2
2353.52708 6432.51
2353.59432 23186
2353.66157 14968.2
2353.72882 2697.51
2353.79607 2572.42
2353.86332 1591.08
2353.93057 1193.2
2353.99783 1470
2354.06509 3958.85
2354.13235 1865.56
2354.19961 978.387
2354.26687 2306.04
2354.33414 1292.45
2354.40141 1568.2
2354.46868 4909.57
2354.53595 2450.98
2354.60322 4252.94
2354.6705 6657.66
2354.73777 3118.36
2354.80505 3948.9
2354.87233 9453.99
2354.93962 6287.13
2355.0069 1963.8
2355.07419 2320.4
2355.14148 2296.29
2355.20877 4214.44
2355.27606 3989.9
2355.34336 1407.81
2355.41065 1963.41
2355.47795 1630.79
2355.54525 1999.36
2355.61255 1846.12
2355.67986 3076.71
2355.74716 11297
2355.81447 35386.4
2355.88178 13507.8
2355.94909 22941.3
2356.01641 22079.9
2356.08372 8916.12
2356.15104 11505.6
2356.21836 20617
2356.28568 6239.54
2356.353 2703.43
2356.42033 2661.76
2356.48766 1161.37
2356.55499 844.603
2356.62232 924.75
2356.68965 1523.76
2356.75699 3004.85
2356.82432 9793.17
2356.89166 27430.2
2356.959 8385.52
2357.02634 2541.9
2357.09369 1825.07
2357.16104 2091.16
2357.22838 7165.24
2357.29573 15141.7
2357.36309 4498.02
2357.43044 1807.43
2357.4978 2890.03
2357.56516 2085.81
2357.63252 1968.55
2357.69988 1060.71
2357.76724 751.213
2357.83461 1042.85
2357.90197 3111.01
2357.96934 9896.59
2358.03672 5207.2
2358.10409 4852.36
2358.17146 2196.03
2358.23884 3615.27
2358.30622 10108.7
2358.3736 20677.8
2358.44098 19109.5
2358.50837 38750.4
2358.57576 31521.9
2358.64315 11712.3
2358.71054 25497.5
2358.77793 27767.5
2358.84532 25620.1
2358.91272 37993.2
2358.98012 10348.6
2359.04752 3365.02
2359.11492 1742.7
2359.18233 1052.13
2359.24973 973.466
2359.31714 806.843
2359.38455 576.448
2359.45196 734.715
2359.51938 867.737
2359.58679 407.564
2359.65421 589.921
2359.72163 682.161
2359.78905 685.577
2359.85647 809.157
2359.9239 649.626
2359.99133 1132.45
2360.05876 1011.93
2360.12619 2422.02
2360.19362 1938.66
2360.26106 1767.52
2360.32849 1981.87
2360.39593 1162.31
2360.46337 508.437
2360.53082 1071.87
2360.59826 645.884
2360.66571 1118.91
2360.73316 1522.13
2360.80061 857.502
2360.86806 1523.7
2360.93551 2438.35
2361.00297 1235.54
2361.07043 809.152
2361.13789 642.447
2361.20535 611.002
2361.27281 841.549
2361.34028 880.63
2361.40775 1339.84
2361.47522 3026.12
2361.54269 8584.94
2361.61016 30309.8
2361.67764 22746.6
2361.74511 6620.08
2361.81259 4338.8
2361.88008 2877.8
2361.94756 5573.8
2362.01504 1554.02
2362.08253 703.346
2362.15002 524.066
2362.21751 503.206
2362.285 631.441
2362.3525 1617.26
2362.42 2035.06
2362.48749 1379.89
2362.55499 887.474
2362.6225 2268.27
2362.69 2634.69
2362.75751 2063.24
2362.82502 941.481
2362.89253 719.105
2362.96004 682.553
2363.02755 724.903
2363.09507 1466.18
2363.16259 2531.65
2363.23011 2789.65
2363.29763 4327.41
2363.36515 13159.2
2363.43268 5148.31
2363.50021 2217.53
2363.56774 1957.05
2363.63527 2426.13
2363.7028 2467.27
2363.77034 3404.58
2363.83787 11391
2363.90541 35472
2363.97295 54919.1
2364.0405 46573.2
2364.10804 8841.1
2364.17559 5843.16
2364.24314 3235.58
2364.31069 3259.19
2364.37824 2300.3
2364.44579 5135.49
2364.51335 18628.7
2364.58091 6786.47
2364.64847 2393.51
2364.71603 1359.57
2364.7836 2426.92
2364.85116 4287.62
2364.91873 1765.82
2364.9863 785.808
2365.05387 839.863
2365.12145 2705.18
2365.18902 3179.56
2365.2566 1089.88
2365.32418 547.423
2365.39176 640.651
2365.45935 1353.78
2365.52693 1867.52
2365.59452 1026.27
2365.66211 562.039
2365.7297 457.016
2365.79729 633.729
2365.86489 743.38
2365.93249 581.543
2366.00008 704.517
2366.06769 1153.03
2366.13529 3117.2
2366.20289 17662.3
2366.2705 17630.3
2366.33811 3858.39
2366.40572 1393.02
2366.47333 1309.42
2366.54095 1714.88
2366.60856 1146.92
2366.67618 1433.86
2366.7438 911.214
2366.81142 1174.97
2366.87905 1445.48
2366.94667 1906.93
2367.0143 3160.41
2367.08193 5869.98
2367.14956 16105.6
2367.2172 80029.6
2367.28483 39966
2367.35247 10505.6
2367.42011 9795.8
2367.48775 27982.2
2367.5554 15951.7
2367.62304 14798
2367.69069 11564.3
2367.75834 22376.6
2367.82599 9534.13
2367.89364 2550.46
2367.9613 2849.92
2368.02895 4235.39
2368.09661 2408.01
2368.16427 1578.47
2368.23194 2426.29
2368.2996 1729.68
2368.36727 2779.54
2368.43494 11517.5
2368.50261 14664.5
2368.57028 4330.28
2368.63795 6458.8
2368.70563 8506.04
2368.77331 5944.92
2368.84099 11904.1
2368.90867 52073.4
2368.97635 65167.2
2369.04404 17959.5
2369.11173 6080.66
2369.17942 5756.81
2369.24711 6344.75
2369.3148 5713.07
2369.3825 2364.79
2369.4502 1897.84
2369.5179 3085.13
2369.5856 2058.42
2369.6533 2262.85
2369.72101 4795.65
2369.78871 6674.79
2369.85642 8129.22
2369.92413 4569.44
2369.99185 5805.64
2370.05956 14572.6
2370.12728 34287.3
2370.195 19289.9
2370.26272 14787.7
2370.33044 34777.7
2370.39817 53143.2
2370.46589 37889.7
2370.53362 35049.4
2370.60135 72371.8
2370.66909 78308.3
2370.73682 49702.2
2370.80456 30307
2370.87229 22982.7
2370.94003 12364.6
2371.00778 27464.7
2371.07552 27794.3
2371.14327 25897.2
2371.21101 32088.5
2371.27876 37204.4
2371.34652 82623.4
2371.41427 133984
2371.48203 35475
2371.54978 36845.2
2371.61754 42567.3
2371.6853 44898.4
2371.75307 23638.8
2371.82083 19614.7
2371.8886 16312.4
2371.95637 12692.7
2372.02414 6102.36
2372.09191 14748.1
2372.15969 19047.8
2372.22747 10644
2372.29524 9184.47
2372.36303 4825.58
2372.43081 20920
2372.49859 16065.5
2372.56638 7113.11
2372.63417 10274.6
2372.70196 10816.1
2372.76975 23152.5
2372.83755 16746.9
2372.90534 13953.4
2372.97314 17634.9
2373.04094 10612.5
2373.10874 3982.88
2373.17655 2988.63
2373.24435 4869.9
2373.31216 3381.58
2373.37997 1333.08
2373.44778 1585.78
2373.5156 4102.88
2373.58341 16137.2
2373.65123 11875.4
2373.71905 5587.02
2373.78687 14068
2373.85469 6604.05
2373.92252 4908.95
2373.99035 5240.84
2374.05818 2317.15
2374.12601 1052.32
2374.19384 954.244
2374.26167 2341.04
2374.32951 1754.58
2374.39735 3326
2374.46519 3175.13
2374.53303 6521.62
2374.60088 5584.7
2374.66873 2264.58
2374.73657 7264.32
2374.80443 6662.62
2374.87228 4637.38
2374.94013 15767.1
2375.00799 4022.92
2375.07585 1695.77
2375.14371 1379.63
2375.21157 2132.45
2375.27943 8030.48
2375.3473 9720.39
2375.41517 5789.33
2375.48304 1991.56
2375.55091 1839.21
2375.61878 2231.71
2375.68666 1648.66
2375.75454 1266.04
2375.82242 1507.39
2375.8903 1957.7
2375.95818 3260.79
2376.02607 4155.6
2376.09395 8271.62
2376.16184 11152.2
2376.22974 6667.93
2376.29763 12633.6
2376.36552 48418.6
2376.43342 38263.6
2376.50132 13573
2376.56922 26110.6
2376.63712 80392.2
2376.70503 34930.4
2376.77294 22882.5
2376.84084 17026.9
2376.90876 23365.2
2376.97667 12575.6
2377.04458 5114.78
2377.1125 4429.5
2377.18042 12997.9
2377.24834 7725.35
2377.31626 9706.39
2377.38418 14594.8
2377.45211 7088
2377.52004 12953.5
2377.58797 9105.2
2377.6559 3763.3
2377.72384 3766.01
2377.79177 4605.89
2377.85971 6396.78
2377.92765 10805.2
2377.99559 19327.4
2378.06353 31291.7
2378.13148 91357
2378.19943 220974
2378.26738 149784
2378.33533 46899.6
2378.40328 23809.9
2378.47124 13358.1
2378.53919 7582.21
2378.60715 5184.32
2378.67511 4481.36
2378.74308 3985.19
2378.81104 4483.39
2378.87901 5190.37
2378.94698 3165.11
2379.01495 5690.57
2379.08292 5384.3
2379.1509 2787.98
2379.21887 2193.57
2379.28685 2320.11
2379.35483 3450.95
2379.42282 4241.76
2379.4908 7434.13
2379.55879 10454.1
2379.62678 19518.7
2379.69477 33295.1
2379.76276 6840.56
2379.83075 5651.73
2379.89875 15297.8
2379.96675 7436.6
2380.03475 3512.25
2380.10275 8471.46
2380.17075 19376.5
2380.23876 5919.14
2380.30677 3576.19
2380.37478 6579.8
2380.44279 19321.8
2380.5108 25407.7
2380.57882 6158.31
2380.64683 4050.72
2380.71485 7166.47
2380.78287 28977.6
2380.8509 34817.7
2380.91892 9575.25
2380.98695 4158.64
2381.05498 2280.72
2381.12301 1596.18
2381.19104 1318.73
2381.25908 1784.56
2381.32712 3497.45
2381.39515 2056.56
2381.4632 1650.77
2381.53124 2132.08
2381.59928 2174.4
2381.66733 1572.3
2381.73538 1416.41
2381.80343 1908.15
2381.87148 1177.48
2381.93954 1084.57
2382.00759 1340.35
2382.07565 1971.21
2382.14371 4742.16
2382.21177 10738.2
2382.27984 4508.64
2382.3479 2850.84
2382.41597 3634.52
2382.48404 9737.74
2382.55211 16457.6
2382.62019 18994.4
2382.68826 4350.88
2382.75634 3077.94
2382.82442 3595.22
2382.8925 5601.22
2382.96059 19350
2383.02867 25635.4
2383.09676 9287.32
2383.16485 13118.5
2383.23294 32697.2
2383.30103 51910.1
2383.36913 151315
2383.43723 82913.4
2383.50532 23038
2383.57343 11419.8
2383.64153 9006.55
2383.70963 9412.49
2383.77774 11683.2
2383.84585 20078.4
2383.91396 51634.1
2383.98207 133857
2384.05019 227647
2384.11831 88985.1
2384.18642 30407.9
2384.25454 15892.8
2384.32267 13634.5
2384.39079 31141.5
2384.45892 39038.3
2384.52705 18098.4
2384.59518 13455
2384.66331 8572.85
2384.73144 6882.83
2384.79958 6895.14
2384.86772 3534.03
2384.93586 2508.86
2385.004 2587.27
2385.07214 2807.33
2385.14029 2318.57
2385.20844 2296.02
2385.27659 3197.39
2385.34474 4487.27
2385.41289 9138.38
2385.48105 9143.98
2385.54921 5063.22
2385.61736 4662.81
2385.68553 5988.07
2385.75369 9248.78
2385.82186 17988.6
2385.89002 49063.9
2385.95819 172324
2386.02636 119132
2386.09454 35437.5
2386.16271 21453.4
2386.23089 14733.5
2386.29907 12727.2
2386.36725 27497.9
2386.43543 11564.5
2386.50362 10032.6
2386.5718 9502.68
2386.63999 11992.6
2386.70818 27024.7
2386.77637 14216.9
2386.84457 4771.85
2386.91277 2910.45
2386.98096 2317.63
2387.04916 3235.4
2387.11737 3130.25
2387.18557 2196.42
2387.25378 2629.28
2387.32199 4151.29
2387.3902 14290.2
2387.45841 8961.57
2387.52662 10346.5
2387.59484 18758
2387.66306 5912.98
2387.73128 5196.71
2387.7995 6169.49
2387.86772 8741
2387.93595 14651.4
2388.00418 30743.4
2388.07241 88419.2
2388.14064 237864
2388.20887 131856
2388.27711 39721.1
2388.34534 16676.9
2388.41358 9772.64
2388.48182 6470.15
2388.55007 5314.08
2388.61831 4123.1
2388.68656 3206.89
2388.75481 3784.17
2388.82306 7035.43
2388.89131 3259.06
2388.95957 2205.5
2389.02783 2028.36
2389.09608 1743.16
2389.16434 1786.92
2389.23261 2432.39
2389.30087 5486.19
2389.36914 8000.24
2389.43741 3389.75
2389.50568 2312.36
2389.57395 2174.37
2389.64223 2904.84
2389.7105 9144.95
2389.77878 14703.4
2389.84706 18329.4
2389.91534 5904.94
2389.98363 3043.53
2390.05191 4035.24
2390.1202 17214.1
2390.18849 21468.1
2390.25678 4399.05
2390.32508 3198.72
2390.39337 2532.23
2390.46167 2307.56
2390.52997 2398.56
2390.59827 2786.16
2390.66658 3085.56
2390.73488 4143.92
2390.80319 7996.4
2390.8715 20781.7
2390.93981 15115.9
2391.00813 21513.3
2391.07644 12256.4
2391.14476 10641.5
2391.21308 15407.9
2391.2814 33444
2391.34972 53809
2391.41805 121667
2391.48638 274873
2391.5547 189107
2391.62304 75305
2391.69137 32678.2
2391.7597 17633.9
2391.82804 11339.5
2391.89638 8350.79
2391.96472 6909.34
2392.03306 5987.36
2392.10141 4362.51
2392.16975 3519.38
2392.2381 3175.13
2392.30645 3393.91
2392.37481 5233.91
2392.44316 17030.6
2392.51152 10072
2392.57988 3609.41
2392.64824 4322.77
2392.7166 7386.07
2392.78496 4209.54
2392.85333 2072.43
2392.9217 1901.03
2392.99007 2333.77
2393.05844 3619.34
2393.12681 7162.4
2393.19519 16448.7
2393.26357 6853.38
2393.33195 15032.3
2393.40033 6623.73
2393.46871 2417.56
2393.5371 2533.53
2393.60549 4674.81
2393.67388 3676.06
2393.74227 1671.92
2393.81066 1572.93
2393.87906 1485.87
2393.94746 1464.18
2394.01585 1734.36
2394.08426 2654.76
2394.15266 4423.59
2394.22106 13577.4
2394.28947 25609
2394.35788 27337.5
2394.42629 48893.8
2394.49471 20021.3
2394.56312 10776
2394.63154 4553.62
2394.69996 3482.87
2394.76838 6422.99
2394.8368 14729.7
2394.90523 4315.94
2394.97365 2258.64
2395.04208 3542.38
2395.11051 12100.7
2395.17894 3869.53
2395.24738 2029.55
2395.31582 1831.16
2395.38425 2616.77
2395.4527 7309.56
2395.52114 16153.6
2395.58958 7236.34
2395.65803 4156.1
2395.72648 2969.84
2395.79493 8928.38
2395.86338 6499.44
2395.93183 2633.93
2396.00029 2893.44
2396.06875 2380.94
2396.13721 3190.5
2396.20567 6746.07
2396.27413 6751.24
2396.3426 9750.01
2396.41107 11193.2
2396.47954 16489.2
2396.54801 16567.9
2396.61648 37914.9
2396.68496 125657
2396.75344 224094
2396.82192 90220.7
2396.8904 48748.7
2396.95888 21450.8
2397.02737 11222.8
2397.09585 12160.6
2397.16434 12098.5
2397.23284 18787.7
2397.30133 74972.6
2397.36982 100565
2397.43832 22911.4
2397.50682 8951.33
2397.57532 5037.89
2397.64382 3390.56
2397.71233 2717.08
2397.78084 2470.33
2397.84935 2273.13
2397.91786 2166.28
2397.98637 2537.66
2398.05488 5188.02
2398.1234 17765.3
2398.19192 10856.8
2398.26044 7858.31
2398.32896 7033.44
2398.39749 4380.94
2398.46601 2727.23
2398.53454 3460.87
2398.60307 8961.08
2398.67161 5933.02
2398.74014 4694.99
2398.80868 3153.4
2398.87722 3409.74
2398.94576 12188.5
2399.0143 6341.94
2399.08284 2212.44
2399.15139 1635.1
2399.21994 1679.24
2399.28849 2250.22
2399.35704 3545.33
2399.42559 2959.88
2399.49415 8398.06
2399.56271 4580.56
2399.63127 3469.14
2399.69983 11121
2399.76839 7714.68
2399.83696 2543.12
2399.90553 2569.7
2399.9741 3446.97
2400.04267 3647.69
2400.11124 4827.05
2400.17982 8658.84
2400.24839 17477.9
2400.31697 63205.1
2400.38556 106901
2400.45414 38094.3
2400.52272 22058.9
2400.59131 14866.4
2400.6599 13416.3
2400.72849 5271.94
2400.79709 3082.41
2400.86568 3602.45
2400.93428 4347.36
2401.00288 2712.42
2401.07148 1953.31
2401.14008 2563.2
2401.20869 1853.03
2401.27729 1546.73
2401.3459 1668.62
2401.41451 1466.08
2401.48313 1480.96
2401.55174 2184.92
2401.62036 2703.53
2401.68898 4862.72
2401.7576 29577.5
2401.82622 20525.3
2401.89484 4650.77
2401.96347 2925.53
2402.0321 4948.15
2402.10073 9166.37
2402.16936 5470.16
2402.238 4804.84
2402.30663 10886.3
2402.37527 3267.33
2402.44391 1904.82
2402.51255 1541.66
2402.5812 1470.44
2402.64984 1644.92
2402.71849 2061.86
2402.78714 3709.73
2402.85579 4009.42
2402.92445 2512.1
2402.9931 2296.67
2403.06176 2629.62
2403.13042 3587.49
2403.19908 11396.6
2403.26775 16096.6
2403.33641 5100.38
2403.40508 3479.67
2403.47375 3282.95
2403.54242 3216.77
2403.6111 3739.04
2403.67977 4498.1
2403.74845 6651.54
2403.81713 15108.8
2403.88581 12075.8
2403.95449 13410.9
2404.02318 20850.5
2404.09187 41546.2
2404.16056 121639
2404.22925 242211
2404.29794 242077
2404.36663 181371
2404.43533 61354
2404.50403 27366.9
2404.57273 15721.2
2404.64144 10466.7
2404.71014 8251.23
2404.77885 6646.64
2404.84756 5926.97
2404.91627 4434.8
2404.98498 4116.32
2405.0537 4795.89
2405.12241 9379.28
2405.19113 10051.4
2405.25985 6319.3
2405.32857 3840.53
2405.3973 4707.54
2405.46603 5309.77
2405.53475 4809.26
2405.60348 16009.8
2405.67222 22760.9
2405.74095 5908.63
2405.80969 4123.01
2405.87843 4280.24
2405.94717 6298.63
2406.01591 15829.8
2406.08465 85219.3
2406.1534 44427.7
2406.22215 12322.1
2406.2909 7089.15
2406.35965 5136.19
2406.4284 5475.15
2406.49716 7936.15
2406.56592 10247.1
2406.63468 9763.02
2406.70344 15756.8
2406.7722 21029.8
2406.84097 42211.5
2406.90974 131029
2406.97851 260459
2407.04728 120407
2407.11605 41012.8
2407.18483 22208.5
2407.25361 23017
2407.32239 13957.9
2407.39117 12892.6
2407.45995 18089.7
2407.52874 31084.8
2407.59752 56251.8
2407.66631 163590
2407.73511 162691
2407.8039 44564.6
2407.87269 19360
2407.94149 11142.4
2408.01029 9015.15
2408.07909 14534.4
2408.1479 17281.5
2408.2167 6025.04
2408.28551 4247.88
2408.35432 3264.11
2408.42313 3196.48
2408.49194 2810.52
2408.56076 2859.3
2408.62957 3222.88
2408.69839 2768.74
2408.76721 2856.01
2408.83604 2980.12
2408.90486 2894.12
2408.97369 4536.19
2409.04252 11818.3
2409.11135 6347.94
2409.18018 3833.76
2409.24901 5042.52
2409.31785 9881.62
2409.38669 5884.08
2409.45553 5264.82
2409.52437 7586.74
2409.59322 17023.4
2409.66206 19176.4
2409.73091 52825.4
2409.79976 126938
2409.86862 132877
2409.93747 220590
2410.00633 74655.6
2410.07518 26439
2410.14405 14906.3
2410.21291 16199.1
2410.28177 36562.7
2410.35064 18543.4
2410.41951 6240.51
2410.48838 5486.46
2410.55725 3874.05
2410.62612 3227.25
2410.695 3505.21
2410.76388 4562.44
2410.83276 5208.7
2410.90164 4105.9
2410.97052 2872.97
2411.03941 2745.63
2411.1083 2794.65
2411.17719 3075.36
2411.24608 3370.1
2411.31497 3931.78
2411.38387 5605.82
2411.45276 7948.46
2411.52166 9878.81
2411.59057 16742.5
2411.65947 41901.1
2411.72837 140606
2411.79728 158971
2411.86619 43660.9
2411.9351 17690.3
2412.00402 10307.2
2412.07293 7628.38
2412.14185 7659.98
2412.21077 12894.1
2412.27969 45765.9
2412.34861 33720.4
2412.41754 12227.9
2412.48647 5873.97
2412.55539 3989.75
2412.62433 3405.5
2412.69326 3836.33
2412.76219 5425.81
2412.83113 7619.6
2412.90007 4957.46
2412.96901 3221.06
2413.03795 2901.07
2413.1069 2894.06
2413.17585 3077.48
2413.24479 3411.9
2413.31375 3508.84
2413.3827 4124.28
2413.45165 4962.18
2413.52061 5888.01
2413.58957 9292.37
2413.65853 21049.9
2413.72749 74976.6
2413.79646 60199.3
2413.86542 20827.5
2413.93439 19984
2414.00336 15138.4
2414.07233 20182.4
2414.14131 31990.3
2414.21029 64835.9
2414.27926 199967
2414.34824 280169
2414.41723 121287
2414.48621 44143.5
2414.5552 23594.1
2414.62419 22362.7
2414.69318 17033.7
2414.76217 10837.4
2414.83116 8995.06
2414.90016 8408.73
2414.96916 8748.03
2415.03816 7750.21
2415.10716 8036.27
2415.17616 9190.1
2415.24517 10822.7
2415.31418 13469.3
2415.38319 16222.2
2415.4522 15614.7
2415.52121 19936
2415.59023 28329.1
2415.65925 46774.7
2415.72827 109840
2415.79729 259739
2415.86631 200320
2415.93534 113583
2416.00437 143033
2416.07339 259834
2416.14243 365608
2416.21146 296253
2416.2805 152557
2416.34953 80257.8
2416.41857 48475
2416.48761 32185.2
2416.55666 24377.7
2416.6257 19600.5
2416.69475 16224.1
2416.7638 18267.4
2416.83285 13361.3
2416.9019 9564.41
2416.97096 8551.37
2417.04002 8562.74
2417.10908 8006.48
2417.17814 7289.32
2417.2472 7956.46
2417.31627 12952.1
2417.38533 8543.49
2417.4544 6944.6
2417.52347 7759.48
2417.59255 12048.4
2417.66162 12273.2
2417.7307 11652.9
2417.79978 8870.05
2417.86886 9504.77
2417.93794 10754.5
2418.00703 12284.8
2418.07611 14773.5
2418.1452 18520.4
2418.21429 24751.5
2418.28339 34928.3
2418.35248 54569
2418.42158 107833
2418.49068 233734
2418.55978 353652
2418.62888 256623
2418.69798 122435
2418.76709 72434.6
2418.8362 57155.9
2418.90531 61191.2
2418.97442 88403.7
2419.04354 165186
2419.11265 330894
2419.18177 341057
2419.25089 192257
2419.32002 103310
2419.38914 97510.9
2419.45827 197990
2419.52739 268043
2419.59653 106743
2419.66566 46154.1
2419.73479 27403.4
2419.80393 19518
2419.87307 15102.1
2419.94221 13142.4
2420.01135 14418.9
2420.08049 11529.5
2420.14964 9433.42
2420.21879 10558.2
2420.28794 11103.8
2420.35709 7677.89
2420.42624 5690.13
2420.4954 4959.72
2420.56456 5127.26
2420.63372 8289.42
2420.70288 10891.1
2420.77204 5443.42
2420.84121 4299.29
2420.91038 4737.94
2420.97955 6175.52
2421.04872 5179.81
2421.11789 7152.43
2421.18707 5325.87
2421.25625 5036.14
2421.32543 7417.45
2421.39461 6194.89
2421.46379 3840.13
2421.53298 3452.56
2421.60216 3764.85
2421.67135 3970.3
2421.74055 4440.06
2421.80974 5949.2
2421.87893 8988.17
2421.94813 20210
2422.01733 103779
2422.08653 100913
2422.15574 30627.8
2422.22494 19771.6
2422.29415 8390.61
2422.36336 5841.54
2422.43257 4473.02
2422.50178 4230.84
2422.571 7021.09
2422.64022 9011.79
2422.70944 4795.06
2422.77866 5892.14
2422.84788 8265.1
2422.91711 6219.81
2422.98633 7752.87
2423.05556 5311.86
2423.12479 4463.05
2423.19403 4523.63
2423.26326 6017.16
2423.3325 4352.11
2423.40174 4071.63
2423.47098 4697.32
2423.54022 5146.92
2423.60947 6218.11
2423.67871 7692
2423.74796 10965.5
2423.81721 17631.5
2423.88647 34779.7
2423.95572 102428
2424.02498 117159
2424.09424 196939
2424.1635 196684
2424.23276 60078.5
2424.30203 27138.1
2424.37129 16842.2
2424.44056 11259.9
2424.50983 8949.22
2424.5791 7489.06
2424.64838 7347.83
2424.71766 11645.1
2424.78693 10296.5
2424.85621 8794.66
2424.9255 8649.02
2424.99478 10304
2425.06407 28819.7
2425.13336 50046.1
2425.20265 16069.8
2425.27194 9068.11
2425.34123 8543.6
2425.41053 7221.01
2425.47983 7188.41
2425.54913 8353.73
2425.61843 7958.88
2425.68774 7209.09
2425.75704 10184.3
2425.82635 9659.75
2425.89566 7837.09
2425.96497 8974.49
2426.03429 11854.3
2426.1036 17135.2
2426.17292 28430
2426.24224 59811.1
2426.31156 162140
2426.38089 309132
2426.45022 154745
2426.51954 59227.9
2426.58887 30451.4
2426.65821 18944.1
2426.72754 11514.4
2426.79688 8515.34
2426.86621 6894.68
2426.93555 6626.26
2427.0049 9867.63
2427.07424 6448.18
2427.14359 4312.27
2427.21293 3943.24
2427.28228 3984.82
2427.35164 6231.51
2427.42099 4753.85
2427.49035 5905.96
2427.5597 7650.99
2427.62906 10140.2
2427.69842 8883.43
2427.76779 5313.57
2427.83715 9789.31
2427.90652 5509.93
2427.97589 3867.47
2428.04526 3766.8
2428.11464 2651.16
2428.18401 2527.33
2428.25339 3592.11
2428.32277 3011.58
2428.39215 2682.94
2428.46154 2479.32
2428.53092 2702
2428.60031 4363.2
2428.6697 4179.57
2428.73909 5610.79
2428.80848 4667.62
2428.87788 4527.86
2428.94728 6894.64
2429.01668 5224.72
2429.08608 4027.8
2429.15548 8169.99
2429.22489 11463
2429.29429 4791.77
2429.3637 5674.15
2429.43311 9226.38
2429.50253 5332.16
2429.57194 4028.16
2429.64136 4515.7
2429.71078 5566.95
2429.7802 9270.5
2429.84962 13247.4
2429.91905 8418.1
2429.98848 8928.78
2430.05791 6908.29
2430.12734 4876.37
2430.19677 8687.78
2430.26621 7647.69
2430.33564 4267.93
2430.40508 5534.63
2430.47452 3392.36
2430.54397 3092.83
2430.61341 3497.21
2430.68286 2790.55
2430.75231 2901.25
2430.82176 3904.34
2430.89121 5932.11
2430.96067 6802.14
2431.03012 5218.45
2431.09958 3892.61
2431.16904 3500.87
2431.23851 4256.79
2431.30797 5801.46
2431.37744 5801.74
2431.44691 6370.65
2431.51638 3782.62
2431.58585 3659.42
2431.65533 4304.36
2431.7248 3706.02
2431.79428 3528.19
2431.86376 3774.25
2431.93325 4906.98
2432.00273 7213.3
2432.07222 5622.78
2432.14171 4440.76
2432.2112 4299.64
2432.28069 4608.58
2432.35018 5086.84
2432.41968 5841.13
2432.48918 7310
2432.55868 6759.98
2432.62818 8267.87
2432.69769 14725.8
2432.76719 42710.3
2432.8367 31403.7
2432.90621 14817.9
2432.97573 14368.1
2433.04524 17083.3
2433.11476 24994.7
2433.18428 44281.5
2433.2538 107581
2433.32332 279127
2433.39284 266197
2433.46237 86587.6
2433.5319 41631.1
2433.60143 26402.7
2433.67096 18002
2433.7405 14403.8
2433.81003 12866.4
2433.87957 12470.3
2433.94911 12445.2
2434.01865 12255.9
2434.0882 13246.2
2434.15774 15513.5
2434.22729 18432.5
2434.29684 18746.2
2434.3664 19536.9
2434.43595 20318.8
2434.50551 24157.6
2434.57506 29031.1
2434.64462 35314.1
2434.71419 54364.6
2434.78375 128182
2434.85332 211486
2434.92289 99314.2
2434.99246 80127.4
2435.06203 92455.7
2435.1316 127026
2435.20118 207073
2435.27076 292655
2435.34034 388144
2435.40992 449384
2435.4795 437378
2435.54909 359917
2435.61868 240737
2435.68827 162675
2435.75786 121644
2435.82745 99196.8
2435.89705 91882.3
2435.96665 104396
2436.03625 147071
2436.10585 269463
2436.17545 410606
2436.24506 369878
2436.31467 214157
2436.38428 130641
2436.45389 132851
2436.5235 234607
2436.59312 348680
2436.66274 181035
2436.73236 82588.8
2436.80198 47835.3
2436.8716 34147.6
2436.94123 25597.3
2437.01086 21519.3
2437.08049 21628.3
2437.15012 17588.8
2437.21975 14222.5
2437.28939 14547.5
2437.35903 12957.4
2437.42867 10226.5
2437.49831 9578.85
2437.56795 11447.9
2437.6376 11609.4
2437.70725 9926.32
2437.7769 10056.6
2437.84655 8495.73
2437.9162 10584.3
2437.98586 9261
2438.05551 6956.25
2438.12517 7779.75
2438.19484 8154.87
2438.2645 9493.72
2438.33416 6975.84
2438.40383 5435.14
2438.4735 4995.44
2438.54317 4825.22
2438.61285 4842.12
2438.68252 5239.93
2438.7522 7452.48
2438.82188 10059.2
2438.89156 6109.08
2438.96125 4964.41
2439.03093 4367.38
2439.10062 4277.28
2439.17031 4598.02
2439.24 4530.23
2439.30969 4004.9
2439.37939 3922.69
2439.44909 3975.99
2439.51879 3887.71
2439.58849 4616.92
2439.65819 4903.17
2439.7279 3871.67
2439.7976 3624.28
2439.86731 3589.89
2439.93703 3660.37
2440.00674 4200.89
2440.07645 10514.1
2440.14617 8112.77
2440.21589 5977.69
2440.28561 5016.26
2440.35534 4312.56
2440.42506 3933.3
2440.49479 4609.03
2440.56452 4362.53
2440.63425 5350.35
2440.70398 6417.45
2440.77372 4682.88
2440.84346 3766.67
2440.9132 3650.4
2440.98294 4677.01
2441.05268 4716.56
2441.12243 3812.05
2441.19217 3611.43
2441.26192 3928.06
2441.33167 3756.75
2441.40143 3932.89
2441.47118 5052.33
2441.54094 5668.94
2441.6107 4700.72
2441.68046 6264.55
2441.75022 11946.3
2441.81999 7738.14
2441.88976 5021.77
2441.95953 4589.77
2442.0293 4490.55
2442.09907 4969.16
2442.16885 5398.16
2442.23862 4897.66
2442.3084 5234.28
2442.37818 5342.5
2442.44797 5892.38
2442.51775 7910.03
2442.58754 12983.6
2442.65733 17248.9
2442.72712 21092.2
2442.79691 55853.6
2442.86671 171387
2442.9365 88709.8
2443.0063 34307.4
2443.0761 36311.7
2443.14591 81621.8
2443.21571 42518.3
2443.28552 15887.9
2443.35533 9518.01
2443.42514 7456.8
2443.49495 6674.2
2443.56477 6525.82
2443.63459 7534.65
2443.70441 7040.5
2443.77423 7229.67
2443.84405 7974.5
2443.91387 14755.4
2443.9837 7883.28
2444.05353 7740.72
2444.12336 7832.91
2444.19319 8102.83
2444.26303 8291.89
2444.33287 8950.99
2444.40271 11981.9
2444.47255 19372.1
2444.54239 11527.6
2444.61224 10315.5
2444.68208 11047.1
2444.75193 10593.5
2444.82178 11086.7
2444.89164 13047.2
2444.96149 23217.2
2445.03135 19444.3
2445.10121 15556
2445.17107 17570.6
2445.24093 19853.2
2445.3108 22991.5
2445.38066 29130.2
2445.45053 42905.3
2445.5204 41156.1
2445.59028 47204.9
2445.66015 64216.8
2445.73003 96015.9
2445.79991 151107
2445.86979 183150
2445.93967 300798
2446.00956 398483
2446.07944 471205
2446.14933 463895
2446.21922 365131
2446.28912 238916
2446.35901 150277
2446.42891 103053
2446.49881 75780.8
2446.56871 59771.8
2446.63861 48687.3
2446.70852 42209.8
2446.77842 39367.7
2446.84833 39791.2
2446.91824 45345
2446.98816 52189.6
2447.05807 67433.4
2447.12799 118513
2447.19791 259933
2447.26783 426801
2447.33775 322018
2447.40768 144260
2447.4776 81068
2447.54753 54852.9
2447.61746 38646.3
2447.68739 32248.3
2447.75733 29782.9
2447.82727 32442.9
2447.89721 47426.4
2447.96715 96437.4
2448.03709 268443
2448.10703 248000
2448.17698 87099.9
2448.24693 42427.3
2448.31688 27601.7
2448.38683 19582.1
2448.45679 16762.6
2448.52675 15094.5
2448.5967 13872.5
2448.66667 12865.6
2448.73663 12988.3
2448.80659 11890.1
2448.87656 11895.9
2448.94653 11748.1
2449.0165 12096.7
2449.08647 12023.3
2449.15645 12262
2449.22642 12423.1
2449.2964 13472.7
2449.36638 13744.2
2449.43637 14702.9
2449.50635 16133.8
2449.57634 18351.9
2449.64633 21573.3
2449.71632 25039.7
2449.78631 31020.9
2449.85631 40876.5
2449.9263 59313.7
2449.9963 104459
2450.0663 191376
2450.13631 285612
2450.20631 438156
2450.27632 400872
2450.34633 217314
2450.41634 118916
2450.48635 77698.2
2450.55637 61489.8
2450.62638 58171.5
2450.6964 62489
2450.76642 89720.7
2450.83645 182686
2450.90647 149506
2450.9765 106012
2451.04653 128452
2451.11656 184463
2451.18659 281365
2451.25662 422563
2451.32666 493208
2451.3967 470127
2451.46674 358715
2451.53678 223716
2451.60683 147793
2451.67688 101934
2451.74693 75956.9
2451.81698 69920.1
2451.88703 110235
2451.95708 95963
2452.02714 42998.8
2452.0972 30952.4
2452.16726 24871.9
2452.23732 21569.1
2452.30739 19591.6
2452.37746 18231.5
2452.44752 17231.3
2452.5176 29281.4
2452.58767 30781.5
2452.65774 15947.7
2452.72782 13846.6
2452.7979 12526.3
2452.86798 12694.1
2452.93806 12065.2
2453.00815 12400.7
2453.07823 12457.2
2453.14832 14756.9
2453.21841 26265.6
2453.28851 23184.8
2453.3586 16774.5
2453.4287 16866.5
2453.4988 21113.5
2453.5689 41281.5
2453.639 65722.3
2453.70911 109310
2453.77921 278493
2453.84932 202500
2453.91943 82237
2453.98955 39058.9
2454.05966 29551.9
2454.12978 26954.6
2454.1999 28389.6
2454.27002 33496.8
2454.34014 42640.5
2454.41027 60696.4
2454.48039 103101
2454.55052 200565
2454.62065 384802
2454.69079 473020
2454.76092 306666
2454.83106 155429
2454.9012 91823.1
2454.97134 52919.8
2455.04148 36383.5
2455.11163 27363.5
2455.18177 21338.1
2455.25192 17500.8
2455.32207 15097
2455.39223 13273.8
2455.46238 11596.7
2455.53254 10612.8
2455.6027 10290.2
2455.67286 10010.9
2455.74302 9897.71
2455.81319 8685.97
2455.88336 7928.72
2455.95352 7559.88
2456.0237 7418.01
2456.09387 7511.27
2456.16404 9462.69
2456.23422 10669.2
2456.3044 14548.7
2456.37458 12211.1
2456.44476 9884.1
2456.51495 10791.7
2456.58514 19243.8
2456.65533 32085.8
2456.72552 13273.1
2456.79571 8977.83
2456.86591 17342.6
2456.9361 19979.9
2457.0063 8961.16
2457.0765 7796.86
2457.14671 6133.41
2457.21691 6049.98
2457.28712 7018.43
2457.35733 9564.51
2457.42754 9822.41
2457.49775 10346.1
2457.56797 7255.98
2457.63818 6193.8
2457.7084 5881.46
2457.77862 5964.5
2457.84885 6453.98
2457.91907 5807.2
2457.9893 6641.2
2458.05953 7580.12
2458.12976 8233.91
2458.19999 9153.15
2458.27023 6874.5
2458.34047 5840.6
2458.41071 5771.39
2458.48095 6544.72
2458.55119 9790.27
2458.62144 9864.44
2458.69168 6920.78
2458.76193 6581.89
2458.83218 7062.79
2458.90244 7560.27
2458.97269 10554.1
2459.04295 8436.8
2459.11321 7550.9
2459.18347 9018.41
2459.25373 14684.1
2459.324 38114.2
2459.39427 28445.6
2459.46454 15285.8
2459.53481 12063.2
2459.60508 12117.5
2459.67536 17094.6
2459.74563 24586.3
2459.81591 9178.04
2459.8862 7136.33
2459.95648 6768.96
2460.02676 6921.85
2460.09705 7458.71
2460.16734 7390.34
2460.23763 7264
2460.30793 6824.8
2460.37822 6899.26
2460.44852 6985.65
2460.51882 7620.13
2460.58912 7914.29
2460.65942 7570.38
2460.72973 7929.22
2460.80004 8364.63
2460.87035 8820.08
2460.94066 10488.1
2461.01097 10090.9
2461.08129 10528.7
2461.15161 12474.2
2461.22192 21465.4
2461.29225 39218.8
2461.36257 22630
2461.4329 16281.6
2461.50322 18608.6
2461.57355 42471
2461.64388 27422.1
2461.71422 18038.4
2461.78455 18380.1
2461.85489 19923.1
2461.92523 22731.3
2461.99557 26823.7
2462.06592 35242.6
2462.13626 36519.3
2462.20661 43204.1
2462.27696 56060.3
2462.34731 71714.6
2462.41767 99865.3
2462.48802 151958
2462.55838 263365
2462.62874 439114
2462.6991 507611
2462.76946 497451
2462.83983 515289
2462.9102 398441
2462.98057 241832
2463.05094 143649
2463.12131 96071.2
2463.19169 70236.3
2463.26207 56838.9
2463.33245 91371.7
2463.40283 67379.4
2463.47321 33712.6
2463.5436 27636.9
2463.61399 28931.1
2463.68438 45617.1
2463.75477 25673.7
2463.82516 18920.6
2463.89556 18712
2463.96596 17441
2464.03636 17743.3
2464.10676 19664.7
2464.17716 24302.2
2464.24757 36339.4
2464.31798 87266
2464.38839 272048
2464.4588 232981
2464.52921 65205.1
2464.59963 32593
2464.67005 20898.4
2464.74047 16026.3
2464.81089 13337
2464.88132 12037
2464.95174 11548.8
2465.02217 11537.9
2465.0926 15960.8
2465.16303 14933.9
2465.23347 10264.1
2465.3039 9220.88
2465.37434 8945.21
2465.44478 8755.41
2465.51522 8697.12
2465.58567 9326.48
2465.65611 8914.36
2465.72656 9064.09
2465.79701 10164.3
2465.86746 12291.1
2465.93792 11992.2
2466.00838 19624.9
2466.07883 78310.3
2466.14929 30053.7
2466.21976 13330.7
2466.29022 15813.3
2466.36069 16130.5
2466.43116 14738.3
2466.50163 10402.4
2466.5721 9802.23
2466.64257 9706.9
2466.71305 11272.9
2466.78353 10761.1
2466.85401 12766.5
2466.92449 15271.8
2466.99498 12395.9
2467.06546 12197.1
2467.13595 13091.3
2467.20644 14416.7
2467.27693 16158.5
2467.34743 19124.8
2467.41793 23162.8
2467.48842 30960.2
2467.55893 45915.1
2467.62943 78275.3
2467.69993 167588
2467.77044 415441
2467.84095 405020
2467.91146 181620
2467.98197 77632.2
2468.05249 46405.1
2468.123 34718.5
2468.19352 27599.1
2468.26404 21248.6
2468.33457 19401.7
2468.40509 20066.8
2468.47562 24299.8
2468.54615 42769.2
2468.61668 108670
2468.68721 49850.9
2468.75774 26254.5
2468.82828 30627.6
2468.89882 59097.7
2468.96936 39630.9
2469.0399 18207
2469.11045 14821.6
2469.181 14568.9
2469.25155 14377.3
2469.3221 14032.6
2469.39265 14045.4
2469.46321 15943.2
2469.53376 15838.1
2469.60432 14389.3
2469.67488 14395.6
2469.74545 14911.3
2469.81601 16946.3
2469.88658 17119.7
2469.95715 18057.7
2470.02772 19403.4
2470.09829 19634.1
2470.16887 23612.7
2470.23944 26218.4
2470.31002 23790.9
2470.3806 52491.3
2470.45119 24963.4
2470.52177 21558.4
2470.59236 22329.4
2470.66295 23632.8
2470.73354 26018.6
2470.80413 28075.9
2470.87473 32583
2470.94533 37222.2
2471.01593 37244
2471.08653 39087.2
2471.15713 41155.9
2471.22774 46416.9
2471.29835 52070.8
2471.36895 57253.2
2471.43957 64717.3
2471.51018 75362.8
2471.5808 89162.8
2471.65141 104387
2471.72203 128498
2471.79265 159791
2471.86328 204141
2471.9339 268007
2472.00453 354153
2472.07516 452458
2472.14579 536424
2472.21643 579600
2472.28706 582731
2472.3577 555694
2472.42834 485803
2472.49898 392461
2472.56963 321438
2472.64027 283873
2472.71092 293733
2472.78157 366272
2472.85222 489006
2472.92287 568060
2472.99353 525860
2473.06419 393505
2473.13485 276492
2473.20551 285972
2473.27617 162955
2473.34684 110495
2473.41751 90804.7
2473.48818 71342.3
2473.55885 59872.3
2473.62953 51955.7
2473.7002 45710.6
2473.77088 42874.1
2473.84156 44210.9
2473.91224 35170.6
2473.98293 31602.4
2474.05361 37490.7
2474.1243 29415.6
2474.19499 25402.8
2474.26568 24076.8
2474.33638 23168.5
2474.40707 23369.3
2474.47777 21653.3
2474.54847 21205.8
2474.61917 22805.9
2474.68988 21382
2474.76059 21563.1
2474.83129 36007.3
2474.902 27787.3
2474.97272 32251.2
2475.04343 40431.3
2475.11415 44554.8
2475.18487 113762
2475.25559 215948
2475.32631 76112.5
2475.39703 31646.1
2475.46776 24796.9
2475.53849 27620.5
2475.60922 77647.1
2475.67995 123488
2475.75069 126028
2475.82142 30360.2
2475.89216 18477.6
2475.9629 16114.8
2476.03365 15558.2
2476.10439 18140.8
2476.17514 19597.3
2476.24589 15594.4
2476.31664 14435.8
2476.38739 14056.8
2476.45815 15653.3
2476.5289 17344.7
2476.59966 14150
2476.67042 13762.9
2476.74119 14775.7
2476.81195 14587.3
2476.88272 13868.1
2476.95349 14357.5
2477.02426 15402.5
2477.09503 17521.9
2477.16581 24685.8
2477.23658 68742.5
2477.30736 94431.9
2477.37814 89087.7
2477.44893 191436
2477.51971 99469.2
2477.5905 35216.9
2477.66129 41180.7
2477.73208 51041.8
2477.80287 26780.1
2477.87367 22776.7
2477.94447 25062.3
2478.01527 26921.5
2478.08607 37878.9
2478.15687 27666.7
2478.22768 24372.9
2478.29848 26907.2
2478.36929 34796.4
2478.44011 56666.9
2478.51092 131482
2478.58173 353587
2478.65255 272234
2478.72337 98217
2478.79419 49014.6
2478.86502 33392.6
2478.93584 28522.6
2479.00667 29502.7
2479.0775 72197.7
2479.14833 119514
2479.21917 44986.7
2479.29 31747.9
2479.36084 34091.4
2479.43168 33325.9
2479.50252 34832.8
2479.57337 46324.8
2479.64421 85815.7
2479.71506 237526
2479.78591 351061
2479.85676 142680
2479.92762 75328.8
2479.99847 59507.1
2480.06933 54155.4
2480.14019 60643.3
2480.21105 75570.9
2480.28192 105566
2480.35278 175103
2480.42365 338214
2480.49452 529663
2480.56539 524150
2480.63627 303213
2480.70714 170481
2480.77802 111192
2480.8489 86040.6
2480.91979 85870.4
2480.99067 141034
2481.06156 185874
2481.13244 103460
2481.20334 102869
2481.27423 130934
2481.34512 205988
2481.41602 363786
2481.48692 542605
2481.55782 564682
2481.62872 375575
2481.69963 242990
2481.77053 134906
2481.84144 90937.7
2481.91235 69498.3
2481.98326 58667
2482.05418 55914.1
2482.1251 47324.1
2482.19602 45100.8
2482.26694 48913.9
2482.33786 40518.1
2482.40878 46120
2482.47971 95112.6
2482.55064 75222.5
2482.62157 66430.1
2482.6925 61467.2
2482.76344 38844.9
2482.83438 39142.3
2482.90532 42224.4
2482.97626 52699.3
2483.0472 65949.4
2483.11814 60768.7
2483.18909 82411.1
2483.26004 82676.4
2483.33099 114594
2483.40195 143933
2483.4729 90510.5
2483.54386 94260.4
2483.61482 109673
2483.68578 130368
2483.75674 158705
2483.82771 200169
2483.89868 260516
2483.96965 339806
2484.04062 442684
2484.11159 551941
2484.18257 610935
2484.25354 631986
2484.32452 615195
2484.39551 554332
2484.46649 457092
2484.53747 352762
2484.60846 263181
2484.67945 205875
2484.75044 164008
2484.82144 133024
2484.89243 110702
2484.96343 94670.2
2485.03443 82142.9
2485.10543 72153
2485.17644 64389.7
2485.24744 58561
2485.31845 53787.9
2485.38946 49795.5
2485.46047 47148.8
2485.53149 46215.9
2485.6025 43526
2485.67352 42502.6
2485.74454 44922
2485.81557 42857
2485.88659 41430.7
2485.95762 41548.3
2486.02864 45430.4
2486.09968 66981.5
2486.17071 174891
2486.24174 105047
2486.31278 52560.2
2486.38382 48848.7
2486.45486 51765.1
2486.5259 60850.6
2486.59694 71449.3
2486.66799 93061.8
2486.73904 146571
2486.81009 314396
2486.88114 523565
2486.9522 386667
2487.02326 188082
2487.09431 120336
2487.16537 103026
2487.23644 100870
2487.3075 108827
2487.37857 126340
2487.44964 152617
2487.52071 193906
2487.59178 270433
2487.66286 374370
2487.73393 521927
2487.80501 608150
2487.87609 640212
2487.94718 620812
2488.01826 538010
2488.08935 400638
2488.16044 303013
2488.23153 249612
2488.30262 246107
2488.37372 347542
2488.44482 544837
2488.51592 542499
2488.58702 304513
2488.65812 186804
2488.72923 127426
2488.80033 134249
2488.87144 84002.9
2488.94256 70658.7
2489.01367 70461.5
2489.08479 71168.6
2489.1559 72278.7
2489.22702 88547.3
2489.29814 164839
2489.36927 441168
2489.44039 412471
2489.51152 275377
2489.58265 308597
2489.65378 97952
2489.72492 53813.6
2489.79605 46738.5
2489.86719 44003.9
2489.93833 41660.6
2490.00947 42883.2
2490.08062 64239.2
2490.15176 112208
2490.22291 72532.9
2490.29406 148336
2490.36522 301782
2490.43637 448327
2490.50753 222132
2490.57868 93352.3
2490.64984 64006.1
2490.72101 54331
2490.79217 53848.5
2490.86334 116338
2490.93451 187258
2491.00568 279273
2491.07685 116607
2491.14802 92078.2
2491.2192 252825
2491.29038 138665
2491.36156 65826.5
2491.43274 65072.3
2491.50393 68546.7
2491.57512 75895.4
2491.6463 90565.4
2491.71749 113570
2491.78869 154394
2491.85988 228068
2491.93108 355058
2492.00228 533753
2492.07348 643125
2492.14468 605333
2492.21589 454162
2492.2871 285604
2492.3583 201123
2492.42952 146658
2492.50073 110329
2492.57194 94272.6
2492.64316 132416
2492.71438 156962
2492.7856 74993.3
2492.85683 74874.5
2492.92805 90957.4
2492.99928 153695
2493.07051 297957
2493.14174 155837
2493.21297 118865
2493.28421 154286
2493.35545 155098
2493.42669 314399
2493.49793 195433
2493.56917 99782.1
2493.64042 90184.2
2493.71167 92003
2493.78292 99016.4
2493.85417 110110
2493.92542 124394
2493.99668 142900
2494.06794 170875
2494.1392 205503
2494.21046 251542
2494.28172 318236
2494.35299 406729
2494.42426 505649
2494.49553 597630
2494.5668 657045
2494.63807 677240
2494.70935 669208
2494.78063 628492
2494.85191 550748
2494.92319 460188
2494.99448 386392
2495.06576 354743
2495.13705 404303
2495.20834 550293
2495.27964 623631
2495.35093 459493
2495.42223 286976
2495.49353 194046
2495.56483 144790
2495.63613 119675
2495.70743 103531
2495.77874 88911.5
2495.85005 82153.6
2495.92136 75796.5
2495.99267 68215.4
2496.06399 64769.1
2496.13531 63907.4
2496.20663 65612.9
2496.27795 72124.1
2496.34927 88495.4
2496.4206 133165
2496.49192 275674
2496.56325 563166
2496.63458 392824
2496.70592 168206
2496.77725 91968.1
2496.84859 67342.9
2496.91993 59247.7
2496.99127 73259.4
2497.06261 259166
2497.13396 95023.2
2497.20531 56807
2497.27666 53123
2497.34801 42537.7
2497.41936 49447
2497.49072 74433.5
2497.56208 100868
2497.63344 84768.8
2497.7048 112695
2497.77616 337414
2497.84753 67195.1
2497.9189 44904.4
2497.99027 53332.6
2498.06164 102747
2498.13301 379501
2498.20439 484727
2498.27577 271175
2498.34715 74803.5
2498.41853 43072.9
2498.48992 35653
2498.5613 32894.8
2498.63269 33176
2498.70408 35004.5
2498.77547 33654.6
2498.84687 35454.7
2498.91826 40553.5
2498.98966 50801.6
2499.06106 89462.8
2499.13247 236969
2499.20387 501163
2499.27528 218402
2499.34669 83897.6
2499.4181 57635.8
2499.48951 51823.8
2499.56093 63902.3
2499.63234 110317
2499.70376 310847
2499.77518 145123
2499.84661 87283.6
2499.91803 69178.9
2499.98946 43788.4
